# sky130 pfet_01v8 gm/ID Processed Lookup Table
# Corner: sf
# Temperature: 25C
# W = 2.0 um
# L = 3 um (3000 nm)
# Columns: gm/id [1/V]  gm/gds [V/V]  id/W [A/m]  ft [Hz]  Cgg/W [F/m]  Cgd/W [F/m]  Cgs/W [F/m]  Cdb/W [F/m]  vgs [V]  vth [V]  vdsat [V]
# vdsat = BSIM4 saturation voltage (|VDS|_sat, positive); use for headroom / saturation / cascode-bias calculations
#           gm/id          gm/gds            id/W              ft           Cgg/W           Cgd/W           Cgs/W           Cdb/W             vgs             vth           vdsat
    2.310023e+00    7.185471e+00    5.451915e+00    1.180549e+08    1.697858e-08    1.097594e-09    1.577375e-08    1.710537e-09   -1.800000e+00    1.051785e+00    6.333078e-01
    2.356985e+00    7.809637e+00    5.325970e+00    1.180480e+08    1.692455e-08    1.029010e-09    1.577076e-08    1.700158e-09   -1.790000e+00    1.051785e+00    6.252534e-01
    2.404584e+00    8.510640e+00    5.200870e+00    1.179678e+08    1.687223e-08    9.637575e-10    1.576640e-08    1.690118e-09   -1.780000e+00    1.051785e+00    6.172032e-01
    2.453041e+00    9.297961e+00    5.076075e+00    1.178106e+08    1.682165e-08    9.018170e-10    1.576069e-08    1.680421e-09   -1.770000e+00    1.051785e+00    6.091571e-01
    2.502223e+00    1.018185e+01    4.951857e+00    1.175734e+08    1.677279e-08    8.431495e-10    1.575366e-08    1.671067e-09   -1.760000e+00    1.051785e+00    6.011152e-01
    2.552091e+00    1.117326e+01    4.828286e+00    1.172539e+08    1.672561e-08    7.876970e-10    1.574532e-08    1.662055e-09   -1.750000e+00    1.051785e+00    5.930774e-01
    2.602616e+00    1.228370e+01    4.705437e+00    1.168509e+08    1.668008e-08    7.353860e-10    1.573572e-08    1.653381e-09   -1.740000e+00    1.051785e+00    5.850436e-01
    2.653783e+00    1.352521e+01    4.583382e+00    1.163640e+08    1.663616e-08    6.861290e-10    1.572488e-08    1.645040e-09   -1.730000e+00    1.051785e+00    5.770139e-01
    2.705587e+00    1.491012e+01    4.462195e+00    1.157938e+08    1.659377e-08    6.398270e-10    1.571284e-08    1.637023e-09   -1.720000e+00    1.051785e+00    5.689882e-01
    2.758042e+00    1.645095e+01    4.341948e+00    1.151418e+08    1.655284e-08    5.963715e-10    1.569962e-08    1.629323e-09   -1.710000e+00    1.051785e+00    5.609665e-01
    2.811176e+00    1.816027e+01    4.222713e+00    1.144104e+08    1.651331e-08    5.556465e-10    1.568526e-08    1.621928e-09   -1.700000e+00    1.051785e+00    5.529488e-01
    2.865035e+00    2.005049e+01    4.104555e+00    1.136026e+08    1.647509e-08    5.175315e-10    1.566978e-08    1.614827e-09   -1.690000e+00    1.051785e+00    5.449349e-01
    2.919678e+00    2.213377e+01    3.987540e+00    1.127220e+08    1.643809e-08    4.819022e-10    1.565322e-08    1.608009e-09   -1.680000e+00    1.051785e+00    5.369250e-01
    2.975177e+00    2.442188e+01    3.871728e+00    1.117725e+08    1.640222e-08    4.486321e-10    1.563557e-08    1.601458e-09   -1.670000e+00    1.051785e+00    5.289189e-01
    3.031620e+00    2.692613e+01    3.757177e+00    1.107585e+08    1.636740e-08    4.175951e-10    1.561688e-08    1.595162e-09   -1.660000e+00    1.051785e+00    5.209167e-01
    3.089101e+00    2.965732e+01    3.643938e+00    1.096841e+08    1.633351e-08    3.886659e-10    1.559715e-08    1.589105e-09   -1.650000e+00    1.051785e+00    5.129183e-01
    3.147728e+00    3.262574e+01    3.532062e+00    1.085539e+08    1.630047e-08    3.617215e-10    1.557639e-08    1.583273e-09   -1.640000e+00    1.051785e+00    5.049237e-01
    3.207614e+00    3.584119e+01    3.421593e+00    1.073722e+08    1.626818e-08    3.366418e-10    1.555461e-08    1.577652e-09   -1.630000e+00    1.051785e+00    4.969329e-01
    3.268878e+00    3.931295e+01    3.312573e+00    1.061429e+08    1.623653e-08    3.133103e-10    1.553180e-08    1.572224e-09   -1.620000e+00    1.051785e+00    4.889460e-01
    3.331651e+00    4.305004e+01    3.205037e+00    1.048702e+08    1.620543e-08    2.916150e-10    1.550797e-08    1.566976e-09   -1.610000e+00    1.051785e+00    4.809628e-01
    3.396060e+00    4.706105e+01    3.099022e+00    1.035576e+08    1.617478e-08    2.714487e-10    1.548310e-08    1.561891e-09   -1.600000e+00    1.051785e+00    4.729834e-01
    3.462247e+00    5.135455e+01    2.994558e+00    1.022084e+08    1.614449e-08    2.527090e-10    1.545718e-08    1.556954e-09   -1.590000e+00    1.051785e+00    4.650077e-01
    3.530352e+00    5.593890e+01    2.891673e+00    1.008259e+08    1.611444e-08    2.352986e-10    1.543018e-08    1.552151e-09   -1.580000e+00    1.051785e+00    4.570359e-01
    3.600528e+00    6.082273e+01    2.790394e+00    9.941296e+07    1.608455e-08    2.191256e-10    1.540210e-08    1.547466e-09   -1.570000e+00    1.051785e+00    4.490679e-01
    3.672927e+00    6.601473e+01    2.690743e+00    9.797202e+07    1.605471e-08    2.041034e-10    1.537289e-08    1.542884e-09   -1.560000e+00    1.051785e+00    4.411037e-01
    3.747713e+00    7.152406e+01    2.592743e+00    9.650555e+07    1.602484e-08    1.901503e-10    1.534252e-08    1.538391e-09   -1.550000e+00    1.051785e+00    4.331434e-01
    3.825054e+00    7.736023e+01    2.496412e+00    9.501556e+07    1.599482e-08    1.771901e-10    1.531093e-08    1.533971e-09   -1.540000e+00    1.051785e+00    4.251871e-01
    3.905130e+00    8.353354e+01    2.401770e+00    9.350399e+07    1.596456e-08    1.651511e-10    1.527810e-08    1.529609e-09   -1.530000e+00    1.051785e+00    4.172347e-01
    3.988130e+00    9.005495e+01    2.308833e+00    9.197254e+07    1.593396e-08    1.539667e-10    1.524397e-08    1.525292e-09   -1.520000e+00    1.051785e+00    4.092863e-01
    4.074250e+00    9.693633e+01    2.217617e+00    9.042266e+07    1.590293e-08    1.435745e-10    1.520847e-08    1.521003e-09   -1.510000e+00    1.051785e+00    4.013421e-01
    4.163704e+00    1.041905e+02    2.128135e+00    8.885573e+07    1.587135e-08    1.339167e-10    1.517154e-08    1.516729e-09   -1.500000e+00    1.051785e+00    3.934022e-01
    4.256713e+00    1.118315e+02    2.040402e+00    8.727285e+07    1.583912e-08    1.249394e-10    1.513310e-08    1.512455e-09   -1.490000e+00    1.051785e+00    3.854666e-01
    4.353513e+00    1.198745e+02    1.954431e+00    8.567507e+07    1.580614e-08    1.165925e-10    1.509306e-08    1.508166e-09   -1.480000e+00    1.051785e+00    3.775356e-01
    4.454361e+00    1.283364e+02    1.870234e+00    8.406328e+07    1.577230e-08    1.088300e-10    1.505137e-08    1.503847e-09   -1.470000e+00    1.051785e+00    3.696094e-01
    4.559528e+00    1.372351e+02    1.787821e+00    8.243822e+07    1.573749e-08    1.016087e-10    1.500790e-08    1.499481e-09   -1.460000e+00    1.051785e+00    3.616882e-01
    4.669303e+00    1.465903e+02    1.707205e+00    8.080048e+07    1.570160e-08    9.488880e-11    1.496256e-08    1.495055e-09   -1.450000e+00    1.051785e+00    3.537722e-01
    4.783994e+00    1.564237e+02    1.628396e+00    7.915064e+07    1.566449e-08    8.863365e-11    1.491524e-08    1.490551e-09   -1.440000e+00    1.051785e+00    3.458618e-01
    4.903940e+00    1.667585e+02    1.551404e+00    7.748907e+07    1.562607e-08    8.280910e-11    1.486582e-08    1.485954e-09   -1.430000e+00    1.051785e+00    3.379575e-01
    5.029490e+00    1.776199e+02    1.476239e+00    7.581602e+07    1.558619e-08    7.738380e-11    1.481418e-08    1.481247e-09   -1.420000e+00    1.051785e+00    3.300596e-01
    5.161033e+00    1.890353e+02    1.402912e+00    7.413176e+07    1.554472e-08    7.232860e-11    1.476017e-08    1.476412e-09   -1.410000e+00    1.051785e+00    3.221687e-01
    5.298973e+00    2.010341e+02    1.331433e+00    7.243628e+07    1.550154e-08    6.761660e-11    1.470367e-08    1.471432e-09   -1.400000e+00    1.051785e+00    3.142854e-01
    5.443755e+00    2.136484e+02    1.261811e+00    7.072971e+07    1.545650e-08    6.322300e-11    1.464451e-08    1.466288e-09   -1.390000e+00    1.051785e+00    3.064105e-01
    5.595841e+00    2.269115e+02    1.194057e+00    6.901176e+07    1.540946e-08    5.912490e-11    1.458254e-08    1.460961e-09   -1.380000e+00    1.051785e+00    2.985449e-01
    5.755744e+00    2.408602e+02    1.128179e+00    6.728238e+07    1.536025e-08    5.530100e-11    1.451757e-08    1.455432e-09   -1.370000e+00    1.051785e+00    2.906896e-01
    5.923992e+00    2.555329e+02    1.064189e+00    6.554118e+07    1.530873e-08    5.173180e-11    1.444945e-08    1.449679e-09   -1.360000e+00    1.051785e+00    2.828458e-01
    6.101163e+00    2.709705e+02    1.002098e+00    6.378784e+07    1.525474e-08    4.839921e-11    1.437797e-08    1.443681e-09   -1.350000e+00    1.051785e+00    2.750149e-01
    6.287851e+00    2.872156e+02    9.419140e-01    6.202178e+07    1.519811e-08    4.528646e-11    1.430294e-08    1.437416e-09   -1.340000e+00    1.051785e+00    2.671985e-01
    6.484702e+00    3.043127e+02    8.836490e-01    6.024249e+07    1.513865e-08    4.237811e-11    1.422413e-08    1.430861e-09   -1.330000e+00    1.051785e+00    2.593985e-01
    6.692390e+00    3.223081e+02    8.273135e-01    5.844940e+07    1.507619e-08    3.965989e-11    1.414137e-08    1.423993e-09   -1.320000e+00    1.051785e+00    2.516171e-01
    6.911615e+00    3.412486e+02    7.729185e-01    5.664180e+07    1.501054e-08    3.711857e-11    1.405438e-08    1.416786e-09   -1.310000e+00    1.051785e+00    2.438569e-01
    7.143105e+00    3.611811e+02    7.204745e-01    5.481899e+07    1.494152e-08    3.474194e-11    1.396298e-08    1.409214e-09   -1.300000e+00    1.051785e+00    2.361208e-01
    7.387596e+00    3.821521e+02    6.699935e-01    5.298026e+07    1.486893e-08    3.251868e-11    1.386689e-08    1.401252e-09   -1.290000e+00    1.051785e+00    2.284123e-01
    7.645846e+00    4.042051e+02    6.214855e-01    5.112497e+07    1.479257e-08    3.043834e-11    1.376588e-08    1.392872e-09   -1.280000e+00    1.051785e+00    2.207352e-01
    7.918607e+00    4.273806e+02    5.749610e-01    4.925251e+07    1.471225e-08    2.849122e-11    1.365970e-08    1.384046e-09   -1.270000e+00    1.051785e+00    2.130942e-01
    8.206587e+00    4.517126e+02    5.304310e-01    4.736246e+07    1.462775e-08    2.666835e-11    1.354810e-08    1.374746e-09   -1.260000e+00    1.051785e+00    2.054943e-01
    8.510480e+00    4.772272e+02    4.879036e-01    4.545457e+07    1.453887e-08    2.496141e-11    1.343080e-08    1.364944e-09   -1.250000e+00    1.051785e+00    1.979416e-01
    8.830881e+00    5.039376e+02    4.473875e-01    4.352891e+07    1.444542e-08    2.336268e-11    1.330757e-08    1.354609e-09   -1.240000e+00    1.051785e+00    1.904429e-01
    9.168283e+00    5.318425e+02    4.088889e-01    4.158593e+07    1.434720e-08    2.186504e-11    1.317813e-08    1.343711e-09   -1.230000e+00    1.051785e+00    1.830057e-01
    9.523023e+00    5.609206e+02    3.724123e-01    3.962660e+07    1.424400e-08    2.046182e-11    1.304225e-08    1.332222e-09   -1.220000e+00    1.051785e+00    1.756387e-01
    9.895230e+00    5.911243e+02    3.379590e-01    3.765253e+07    1.413566e-08    1.914690e-11    1.289967e-08    1.320113e-09   -1.210000e+00    1.051785e+00    1.683518e-01
    1.028477e+01    6.223775e+02    3.055273e-01    3.566609e+07    1.402198e-08    1.791452e-11    1.275016e-08    1.307354e-09   -1.200000e+00    1.051785e+00    1.611557e-01
    1.069117e+01    6.545661e+02    2.751106e-01    3.367059e+07    1.390279e-08    1.675939e-11    1.259352e-08    1.293917e-09   -1.190000e+00    1.051785e+00    1.540625e-01
    1.111357e+01    6.875342e+02    2.466973e-01    3.167035e+07    1.377797e-08    1.567656e-11    1.242951e-08    1.279777e-09   -1.180000e+00    1.051785e+00    1.470853e-01
    1.155059e+01    7.210777e+02    2.202698e-01    2.967086e+07    1.364737e-08    1.466145e-11    1.225798e-08    1.264907e-09   -1.170000e+00    1.051785e+00    1.402384e-01
    1.200033e+01    7.549417e+02    1.958028e-01    2.767889e+07    1.351088e-08    1.370975e-11    1.207877e-08    1.249286e-09   -1.160000e+00    1.051785e+00    1.335374e-01
    1.246028e+01    7.888164e+02    1.732633e-01    2.570242e+07    1.336843e-08    1.281751e-11    1.189174e-08    1.232892e-09   -1.150000e+00    1.051785e+00    1.269986e-01
    1.292723e+01    8.223394e+02    1.526090e-01    2.375068e+07    1.321995e-08    1.198099e-11    1.169683e-08    1.215708e-09   -1.140000e+00    1.051785e+00    1.206389e-01
    1.339736e+01    8.550995e+02    1.337881e-01    2.183398e+07    1.306543e-08    1.119673e-11    1.149397e-08    1.197719e-09   -1.130000e+00    1.051785e+00    1.144760e-01
    1.386617e+01    8.866475e+02    1.167385e-01    1.996348e+07    1.290489e-08    1.046152e-11    1.128317e-08    1.178916e-09   -1.120000e+00    1.051785e+00    1.085275e-01
    1.432864e+01    9.165104e+02    1.013880e-01    1.815087e+07    1.273838e-08    9.772325e-12    1.106447e-08    1.159292e-09   -1.110000e+00    1.051785e+00    1.028106e-01
    1.477934e+01    9.442134e+02    8.765445e-02    1.640785e+07    1.256601e-08    9.126330e-12    1.083797e-08    1.138846e-09   -1.100000e+00    1.051785e+00    9.734193e-02
    1.521265e+01    9.693059e+02    7.544665e-02    1.474575e+07    1.238791e-08    8.520905e-12    1.060386e-08    1.117583e-09   -1.090000e+00    1.051785e+00    9.213648e-02
    1.562306e+01    9.913885e+02    6.466540e-02    1.317484e+07    1.220430e-08    7.953580e-12    1.036233e-08    1.095514e-09   -1.080000e+00    1.051785e+00    8.720749e-02
    1.600550e+01    1.010146e+03    5.520525e-02    1.170391e+07    1.201541e-08    7.422045e-12    1.011368e-08    1.072655e-09   -1.070000e+00    1.051785e+00    8.256577e-02
    1.635563e+01    1.025374e+03    4.695660e-02    1.033974e+07    1.182155e-08    6.924140e-12    9.858260e-09    1.049030e-09   -1.060000e+00    1.051785e+00    7.821925e-02
    1.667029e+01    1.036999e+03    3.980783e-02    9.086794e+06    1.162308e-08    6.457830e-12    9.596500e-09    1.024667e-09   -1.050000e+00    1.051785e+00    7.417269e-02
    1.694769e+01    1.045095e+03    3.364762e-02    7.947020e+06    1.142039e-08    6.021225e-12    9.328880e-09    9.996060e-10   -1.040000e+00    1.051785e+00    7.042742e-02
    1.718767e+01    1.049877e+03    2.836724e-02    6.919835e+06    1.121395e-08    5.612525e-12    9.055955e-09    9.738885e-10   -1.030000e+00    1.051785e+00    6.698129e-02
    1.739181e+01    1.051699e+03    2.386251e-02    6.002342e+06    1.100425e-08    5.230055e-12    8.778340e-09    9.475660e-10   -1.020000e+00    1.051785e+00    6.382880e-02
    1.756340e+01    1.051030e+03    2.003553e-02    5.189594e+06    1.079186e-08    4.872238e-12    8.496705e-09    9.206960e-10   -1.010000e+00    1.051785e+00    6.096134e-02
    1.770724e+01    1.048425e+03    1.679588e-02    4.475036e+06    1.057736e-08    4.537586e-12    8.211790e-09    8.933410e-10   -1.000000e+00    1.051785e+00    5.836757e-02
    1.782945e+01    1.044492e+03    1.406142e-02    3.850970e+06    1.036136e-08    4.224701e-12    7.924350e-09    8.655710e-10   -9.900000e-01    1.051785e+00    5.603389e-02
    1.793709e+01    1.039861e+03    1.175870e-02    3.309015e+06    1.014455e-08    3.932265e-12    7.635210e-09    8.374595e-10   -9.800000e-01    1.051785e+00    5.394496e-02
    1.803782e+01    1.035151e+03    9.822895e-03    2.840540e+06    9.927565e-09    3.659038e-12    7.345200e-09    8.090850e-10   -9.700000e-01    1.051785e+00    5.208424e-02
    1.813948e+01    1.030944e+03    8.197535e-03    2.437021e+06    9.711110e-09    3.403849e-12    7.055175e-09    7.805295e-10   -9.600000e-01    1.051785e+00    5.043452e-02
    1.824979e+01    1.027769e+03    6.833910e-03    2.090318e+06    9.495870e-09    3.165594e-12    6.766005e-09    7.518760e-10   -9.500000e-01    1.051785e+00    4.897837e-02
    1.837602e+01    1.026090e+03    5.690420e-03    1.792875e+06    9.282525e-09    2.943233e-12    6.478550e-09    7.232110e-10   -9.400000e-01    1.051785e+00    4.769855e-02
    1.852478e+01    1.026293e+03    4.731782e-03    1.537824e+06    9.071755e-09    2.735781e-12    6.193660e-09    6.946195e-10   -9.300000e-01    1.051785e+00    4.657834e-02
    1.870180e+01    1.028692e+03    3.928252e-03    1.319056e+06    8.864205e-09    2.542316e-12    5.912160e-09    6.661865e-10   -9.200000e-01    1.051785e+00    4.560177e-02
    1.891183e+01    1.033520e+03    3.254881e-03    1.131217e+06    8.660500e-09    2.361959e-12    5.634835e-09    6.379945e-10   -9.100000e-01    1.051785e+00    4.475384e-02
    1.915850e+01    1.040943e+03    2.690793e-03    9.696804e+05    8.461225e-09    2.193887e-12    5.362435e-09    6.101250e-10   -9.000000e-01    1.051785e+00    4.402056e-02
    1.944422e+01    1.051043e+03    2.218554e-03    8.304945e+05    8.266920e-09    2.037322e-12    5.095655e-09    5.826535e-10   -8.900000e-01    1.051785e+00    4.338907e-02
    1.977015e+01    1.063839e+03    1.823609e-03    7.103188e+05    8.078085e-09    1.891527e-12    4.835128e-09    5.556525e-10   -8.800000e-01    1.051785e+00    4.284759e-02
    2.013615e+01    1.079275e+03    1.493793e-03    6.063538e+05    7.895160e-09    1.755814e-12    4.581431e-09    5.291880e-10   -8.700000e-01    1.051785e+00    4.238539e-02
    2.054072e+01    1.097226e+03    1.218921e-03    5.162694e+05    7.718535e-09    1.629528e-12    4.335065e-09    5.033210e-10   -8.600000e-01    1.051785e+00    4.199280e-02
    2.098106e+01    1.117502e+03    9.904310e-04    4.381359e+05    7.548540e-09    1.512056e-12    4.096464e-09    4.781062e-10   -8.500000e-01    1.051785e+00    4.166105e-02
    2.145308e+01    1.139849e+03    8.011065e-04    3.703589e+05    7.385455e-09    1.402817e-12    3.865987e-09    4.535913e-10   -8.400000e-01    1.051785e+00    4.138229e-02
    2.195151e+01    1.163957e+03    6.448325e-04    3.116190e+05    7.229490e-09    1.301268e-12    3.643925e-09    4.298172e-10   -8.300000e-01    1.051785e+00    4.114943e-02
    2.247015e+01    1.189472e+03    5.164075e-04    2.608169e+05    7.080810e-09    1.206898e-12    3.430492e-09    4.068180e-10   -8.200000e-01    1.051785e+00    4.095613e-02
    2.300201e+01    1.216003e+03    4.113906e-04    2.170255e+05    6.939520e-09    1.119224e-12    3.225840e-09    3.846212e-10   -8.100000e-01    1.051785e+00    4.079674e-02
    2.353962e+01    1.243143e+03    3.259802e-04    1.794483e+05    6.805680e-09    1.037794e-12    3.030053e-09    3.632474e-10   -8.000000e-01    1.051785e+00    4.066620e-02
    2.407537e+01    1.270484e+03    2.569180e-04    1.473862e+05    6.679295e-09    9.621850e-13    2.843153e-09    3.427111e-10   -7.900000e-01    1.051785e+00    4.056004e-02
    2.460172e+01    1.297631e+03    2.014136e-04    1.202121e+05    6.560340e-09    8.919975e-13    2.665111e-09    3.230207e-10   -7.800000e-01    1.051785e+00    4.047433e-02
    2.511151e+01    1.324222e+03    1.570835e-04    9.735291e+04    6.448735e-09    8.268590e-13    2.495842e-09    3.041789e-10   -7.700000e-01    1.051785e+00    4.040561e-02
    2.559811e+01    1.349936e+03    1.219008e-04    7.827907e+04    6.344375e-09    7.664200e-13    2.335219e-09    2.861837e-10   -7.600000e-01    1.051785e+00    4.035091e-02
    2.605552e+01    1.374507e+03    9.415220e-05    6.249864e+04    6.247120e-09    7.103530e-13    2.183074e-09    2.690278e-10   -7.500000e-01    1.051785e+00    4.030766e-02
    2.647836e+01    1.397724e+03    7.240045e-05    4.955606e+04    6.156810e-09    6.583530e-13    2.039205e-09    2.527005e-10   -7.400000e-01    1.051785e+00    4.027370e-02
    2.686174e+01    1.419438e+03    5.544975e-05    3.903301e+04    6.073260e-09    6.101330e-13    1.903383e-09    2.371869e-10   -7.300000e-01    1.051785e+00    4.024719e-02
    2.720098e+01    1.439552e+03    4.231429e-05    3.054995e+04    5.996270e-09    5.654265e-13    1.775353e-09    2.224693e-10   -7.200000e-01    1.051785e+00    4.022662e-02
