# sky130 pfet_01v8 gm/ID Processed Lookup Table
# Corner: sf
# Temperature: -40C
# W = 2.0 um
# L = 4.5 um (4500 nm)
# Columns: gm/id [1/V]  gm/gds [V/V]  id/W [A/m]  ft [Hz]  Cgg/W [F/m]  Cgd/W [F/m]  Cgs/W [F/m]  Cdb/W [F/m]  vgs [V]  vth [V]  vdsat [V]
# vdsat = BSIM4 saturation voltage (|VDS|_sat, positive); use for headroom / saturation / cascode-bias calculations
#           gm/id          gm/gds            id/W              ft           Cgg/W           Cgd/W           Cgs/W           Cdb/W             vgs             vth           vdsat
    2.884497e+00    2.343004e+01    3.639073e+00    6.712052e+07    2.489005e-08    9.536430e-10    2.361397e-08    2.321477e-09   -1.800000e+00    1.150191e+00    5.445161e-01
    2.938655e+00    2.608224e+01    3.534104e+00    6.656818e+07    2.483026e-08    8.873255e-10    2.359845e-08    2.310600e-09   -1.790000e+00    1.150191e+00    5.364655e-01
    2.992686e+00    2.902518e+01    3.431379e+00    6.597409e+07    2.477288e-08    8.252650e-10    2.358143e-08    2.300194e-09   -1.780000e+00    1.150191e+00    5.284199e-01
    3.048062e+00    3.227933e+01    3.329290e+00    6.534100e+07    2.471781e-08    7.672700e-10    2.356295e-08    2.290242e-09   -1.770000e+00    1.150191e+00    5.203793e-01
    3.104421e+00    3.586478e+01    3.228436e+00    6.467164e+07    2.466489e-08    7.131415e-10    2.354308e-08    2.280727e-09   -1.760000e+00    1.150191e+00    5.123438e-01
    3.161873e+00    3.980121e+01    3.128856e+00    6.396877e+07    2.461399e-08    6.626785e-10    2.352186e-08    2.271631e-09   -1.750000e+00    1.150191e+00    5.043132e-01
    3.220535e+00    4.410779e+01    3.030587e+00    6.323508e+07    2.456500e-08    6.156805e-10    2.349933e-08    2.262933e-09   -1.740000e+00    1.150191e+00    4.962875e-01
    3.280527e+00    4.880315e+01    2.933664e+00    6.247317e+07    2.451775e-08    5.719480e-10    2.347553e-08    2.254611e-09   -1.730000e+00    1.150191e+00    4.882669e-01
    3.341978e+00    5.390537e+01    2.838117e+00    6.168543e+07    2.447211e-08    5.312855e-10    2.345050e-08    2.246647e-09   -1.720000e+00    1.150191e+00    4.802511e-01
    3.405021e+00    5.943204e+01    2.743974e+00    6.087419e+07    2.442794e-08    4.935021e-10    2.342426e-08    2.239017e-09   -1.710000e+00    1.150191e+00    4.722403e-01
    3.469795e+00    6.540031e+01    2.651259e+00    6.004155e+07    2.438508e-08    4.584136e-10    2.339683e-08    2.231700e-09   -1.700000e+00    1.150191e+00    4.642344e-01
    3.536439e+00    7.182700e+01    2.559995e+00    5.918943e+07    2.434340e-08    4.258426e-10    2.336822e-08    2.224676e-09   -1.690000e+00    1.150191e+00    4.562333e-01
    3.605105e+00    7.872870e+01    2.470200e+00    5.831960e+07    2.430276e-08    3.956198e-10    2.333844e-08    2.217923e-09   -1.680000e+00    1.150191e+00    4.482372e-01
    3.675947e+00    8.612210e+01    2.381894e+00    5.743374e+07    2.426301e-08    3.675838e-10    2.330748e-08    2.211418e-09   -1.670000e+00    1.150191e+00    4.402459e-01
    3.749126e+00    9.402382e+01    2.295091e+00    5.653324e+07    2.422402e-08    3.415818e-10    2.327534e-08    2.205143e-09   -1.660000e+00    1.150191e+00    4.322595e-01
    3.824810e+00    1.024508e+02    2.209807e+00    5.561943e+07    2.418565e-08    3.174697e-10    2.324200e-08    2.199076e-09   -1.650000e+00    1.150191e+00    4.242780e-01
    3.903181e+00    1.114205e+02    2.126053e+00    5.469356e+07    2.414776e-08    2.951115e-10    2.320742e-08    2.193196e-09   -1.640000e+00    1.150191e+00    4.163013e-01
    3.984424e+00    1.209512e+02    2.043842e+00    5.375666e+07    2.411020e-08    2.743800e-10    2.317158e-08    2.187483e-09   -1.630000e+00    1.150191e+00    4.083295e-01
    4.068744e+00    1.310618e+02    1.963186e+00    5.280978e+07    2.407285e-08    2.551559e-10    2.313444e-08    2.181918e-09   -1.620000e+00    1.150191e+00    4.003625e-01
    4.156351e+00    1.417726e+02    1.884092e+00    5.185372e+07    2.403557e-08    2.373282e-10    2.309593e-08    2.176481e-09   -1.610000e+00    1.150191e+00    3.924005e-01
    4.247470e+00    1.531049e+02    1.806570e+00    5.088927e+07    2.399822e-08    2.207932e-10    2.305600e-08    2.171152e-09   -1.600000e+00    1.150191e+00    3.844433e-01
    4.342354e+00    1.650819e+02    1.730627e+00    4.991721e+07    2.396065e-08    2.054544e-10    2.301458e-08    2.165912e-09   -1.590000e+00    1.150191e+00    3.764911e-01
    4.441260e+00    1.777285e+02    1.656272e+00    4.893814e+07    2.392272e-08    1.912224e-10    2.297158e-08    2.160741e-09   -1.580000e+00    1.150191e+00    3.685439e-01
    4.544473e+00    1.910712e+02    1.583511e+00    4.795261e+07    2.388429e-08    1.780141e-10    2.292691e-08    2.155620e-09   -1.570000e+00    1.150191e+00    3.606017e-01
    4.652301e+00    2.051396e+02    1.512350e+00    4.696119e+07    2.384520e-08    1.657528e-10    2.288047e-08    2.150529e-09   -1.560000e+00    1.150191e+00    3.526645e-01
    4.765072e+00    2.199651e+02    1.442794e+00    4.596428e+07    2.380530e-08    1.543672e-10    2.283213e-08    2.145446e-09   -1.550000e+00    1.150191e+00    3.447326e-01
    4.883151e+00    2.355824e+02    1.374851e+00    4.496231e+07    2.376443e-08    1.437916e-10    2.278176e-08    2.140353e-09   -1.540000e+00    1.150191e+00    3.368058e-01
    5.006931e+00    2.520293e+02    1.308524e+00    4.395565e+07    2.372241e-08    1.339651e-10    2.272923e-08    2.135227e-09   -1.530000e+00    1.150191e+00    3.288845e-01
    5.136833e+00    2.693464e+02    1.243819e+00    4.294457e+07    2.367906e-08    1.248318e-10    2.267436e-08    2.130048e-09   -1.520000e+00    1.150191e+00    3.209687e-01
    5.273324e+00    2.875787e+02    1.180740e+00    4.192934e+07    2.363420e-08    1.163397e-10    2.261698e-08    2.124792e-09   -1.510000e+00    1.150191e+00    3.130587e-01
    5.416915e+00    3.067751e+02    1.119292e+00    4.091017e+07    2.358763e-08    1.084411e-10    2.255689e-08    2.119435e-09   -1.500000e+00    1.150191e+00    3.051546e-01
    5.568161e+00    3.269886e+02    1.059479e+00    3.988721e+07    2.353914e-08    1.010918e-10    2.249388e-08    2.113953e-09   -1.490000e+00    1.150191e+00    2.972567e-01
    5.727675e+00    3.482773e+02    1.001306e+00    3.886063e+07    2.348851e-08    9.425125e-11    2.242773e-08    2.108319e-09   -1.480000e+00    1.150191e+00    2.893654e-01
    5.896108e+00    3.707032e+02    9.447775e-01    3.783040e+07    2.343550e-08    8.788190e-11    2.235816e-08    2.102506e-09   -1.470000e+00    1.150191e+00    2.814812e-01
    6.074205e+00    3.943351e+02    8.898975e-01    3.679663e+07    2.337984e-08    8.194920e-11    2.228490e-08    2.096485e-09   -1.460000e+00    1.150191e+00    2.736045e-01
    6.262758e+00    4.192460e+02    8.366705e-01    3.575920e+07    2.332128e-08    7.642120e-11    2.220764e-08    2.090224e-09   -1.450000e+00    1.150191e+00    2.657359e-01
    6.462638e+00    4.455150e+02    7.851020e-01    3.471804e+07    2.325953e-08    7.126855e-11    2.212607e-08    2.083691e-09   -1.440000e+00    1.150191e+00    2.578764e-01
    6.674815e+00    4.732274e+02    7.351960e-01    3.367301e+07    2.319426e-08    6.646410e-11    2.203982e-08    2.076849e-09   -1.430000e+00    1.150191e+00    2.500267e-01
    6.900332e+00    5.024730e+02    6.869575e-01    3.262386e+07    2.312516e-08    6.198285e-11    2.194850e-08    2.069662e-09   -1.420000e+00    1.150191e+00    2.421880e-01
    7.140326e+00    5.333484e+02    6.403930e-01    3.157030e+07    2.305187e-08    5.780175e-11    2.185170e-08    2.062088e-09   -1.410000e+00    1.150191e+00    2.343617e-01
    7.396046e+00    5.659533e+02    5.955075e-01    3.051197e+07    2.297401e-08    5.389945e-11    2.174897e-08    2.054085e-09   -1.400000e+00    1.150191e+00    2.265495e-01
    7.668846e+00    6.003919e+02    5.523070e-01    2.944847e+07    2.289117e-08    5.025635e-11    2.163981e-08    2.045604e-09   -1.390000e+00    1.150191e+00    2.187533e-01
    7.960178e+00    6.367705e+02    5.107985e-01    2.837930e+07    2.280294e-08    4.685427e-11    2.152373e-08    2.036600e-09   -1.380000e+00    1.150191e+00    2.109757e-01
    8.271612e+00    6.751942e+02    4.709884e-01    2.730393e+07    2.270886e-08    4.367645e-11    2.140015e-08    2.027016e-09   -1.370000e+00    1.150191e+00    2.032195e-01
    8.604810e+00    7.157662e+02    4.328842e-01    2.622180e+07    2.260845e-08    4.070741e-11    2.126851e-08    2.016797e-09   -1.360000e+00    1.150191e+00    1.954884e-01
    8.961527e+00    7.585795e+02    3.964932e-01    2.513231e+07    2.250119e-08    3.793283e-11    2.112816e-08    2.005885e-09   -1.350000e+00    1.150191e+00    1.877864e-01
    9.343577e+00    8.037130e+02    3.618231e-01    2.403489e+07    2.238657e-08    3.533949e-11    2.097846e-08    1.994214e-09   -1.340000e+00    1.150191e+00    1.801189e-01
    9.752810e+00    8.512231e+02    3.288813e-01    2.292902e+07    2.226402e-08    3.291515e-11    2.081870e-08    1.981718e-09   -1.330000e+00    1.150191e+00    1.724917e-01
    1.019105e+01    9.011330e+02    2.976750e-01    2.181434e+07    2.213296e-08    3.064848e-11    2.064817e-08    1.968326e-09   -1.320000e+00    1.150191e+00    1.649123e-01
    1.066002e+01    9.534182e+02    2.682108e-01    2.069065e+07    2.199279e-08    2.852901e-11    2.046610e-08    1.953966e-09   -1.310000e+00    1.150191e+00    1.573891e-01
    1.116124e+01    1.007992e+03    2.404938e-01    1.955809e+07    2.184290e-08    2.654702e-11    2.027174e-08    1.938558e-09   -1.300000e+00    1.150191e+00    1.499324e-01
    1.169591e+01    1.064682e+03    2.145273e-01    1.841722e+07    2.168266e-08    2.469351e-11    2.006428e-08    1.922026e-09   -1.290000e+00    1.150191e+00    1.425540e-01
    1.226467e+01    1.123214e+03    1.903115e-01    1.726918e+07    2.151144e-08    2.296015e-11    1.984293e-08    1.904287e-09   -1.280000e+00    1.150191e+00    1.352679e-01
    1.286747e+01    1.183179e+03    1.678431e-01    1.611589e+07    2.132862e-08    2.133920e-11    1.960688e-08    1.885259e-09   -1.270000e+00    1.150191e+00    1.280899e-01
    1.350325e+01    1.244015e+03    1.471133e-01    1.496019e+07    2.113358e-08    1.982346e-11    1.935534e-08    1.864857e-09   -1.260000e+00    1.150191e+00    1.210383e-01
    1.416963e+01    1.304980e+03    1.281066e-01    1.380606e+07    2.092572e-08    1.840629e-11    1.908754e-08    1.843001e-09   -1.250000e+00    1.150191e+00    1.141338e-01
    1.486264e+01    1.365141e+03    1.107994e-01    1.265869e+07    2.070451e-08    1.708146e-11    1.880276e-08    1.819609e-09   -1.240000e+00    1.150191e+00    1.073992e-01
    1.557640e+01    1.423369e+03    9.515815e-02    1.152465e+07    2.046942e-08    1.584322e-11    1.850034e-08    1.794604e-09   -1.230000e+00    1.150191e+00    1.008593e-01
    1.630285e+01    1.478358e+03    8.113795e-02    1.041181e+07    2.022001e-08    1.468620e-11    1.817968e-08    1.767914e-09   -1.220000e+00    1.150191e+00    9.454094e-02
    1.703165e+01    1.528674e+03    6.868120e-02    9.329158e+06    1.995595e-08    1.360539e-11    1.784028e-08    1.739477e-09   -1.210000e+00    1.150191e+00    8.847156e-02
    1.775037e+01    1.572831e+03    5.771695e-02    8.286532e+06    1.967696e-08    1.259613e-11    1.748179e-08    1.709237e-09   -1.200000e+00    1.150191e+00    8.267893e-02
    1.844468e+01    1.609394e+03    4.816099e-02    7.294030e+06    1.938292e-08    1.165406e-11    1.710399e-08    1.677149e-09   -1.190000e+00    1.150191e+00    7.718982e-02
    1.909928e+01    1.637129e+03    3.991651e-02    6.361387e+06    1.907382e-08    1.077510e-11    1.670680e-08    1.643185e-09   -1.180000e+00    1.150191e+00    7.202871e-02
    1.969876e+01    1.655126e+03    3.287616e-02    5.497210e+06    1.874984e-08    9.955450e-12    1.629040e-08    1.607333e-09   -1.170000e+00    1.150191e+00    6.721646e-02
    2.022907e+01    1.662944e+03    2.692474e-02    4.708284e+06    1.841132e-08    9.191540e-12    1.585514e-08    1.569598e-09   -1.160000e+00    1.150191e+00    6.276896e-02
    2.067880e+01    1.660682e+03    2.194272e-02    3.998964e+06    1.805878e-08    8.480005e-12    1.540160e-08    1.530008e-09   -1.150000e+00    1.150191e+00    5.869607e-02
    2.104055e+01    1.649016e+03    1.781006e-02    3.370872e+06    1.769296e-08    7.817710e-12    1.493065e-08    1.488613e-09   -1.140000e+00    1.150191e+00    5.500089e-02
    2.131181e+01    1.629137e+03    1.441006e-02    2.822859e+06    1.731479e-08    7.201685e-12    1.444339e-08    1.445487e-09   -1.130000e+00    1.150191e+00    5.167956e-02
    2.149529e+01    1.602642e+03    1.163271e-02    2.351281e+06    1.692543e-08    6.629135e-12    1.394120e-08    1.400729e-09   -1.120000e+00    1.150191e+00    4.872149e-02
    2.159868e+01    1.571366e+03    9.377265e-03    1.950516e+06    1.652624e-08    6.097425e-12    1.342573e-08    1.354467e-09   -1.110000e+00    1.150191e+00    4.611012e-02
    2.163369e+01    1.537212e+03    7.553985e-03    1.613596e+06    1.611878e-08    5.604070e-12    1.289886e-08    1.306849e-09   -1.100000e+00    1.150191e+00    4.382402e-02
    2.161484e+01    1.501985e+03    6.084800e-03    1.332867e+06    1.570478e-08    5.146710e-12    1.236270e-08    1.258052e-09   -1.090000e+00    1.150191e+00    4.183823e-02
    2.155796e+01    1.467282e+03    4.903284e-03    1.100569e+06    1.528613e-08    4.723111e-12    1.181961e-08    1.208272e-09   -1.080000e+00    1.150191e+00    4.012559e-02
    2.147892e+01    1.434414e+03    3.953925e-03    9.092860e+05    1.486485e-08    4.331156e-12    1.127203e-08    1.157727e-09   -1.070000e+00    1.150191e+00    3.865807e-02
    2.139256e+01    1.404388e+03    3.191053e-03    7.522433e+05    1.444304e-08    3.968838e-12    1.072259e-08    1.106646e-09   -1.060000e+00    1.150191e+00    3.740785e-02
    2.131210e+01    1.377931e+03    2.577545e-03    6.234712e+05    1.402285e-08    3.634249e-12    1.017395e-08    1.055274e-09   -1.050000e+00    1.150191e+00    3.634821e-02
    2.124881e+01    1.355521e+03    2.083505e-03    5.178513e+05    1.360643e-08    3.325578e-12    9.628795e-09    1.003860e-09   -1.040000e+00    1.150191e+00    3.545413e-02
    2.121214e+01    1.337453e+03    1.685012e-03    4.310906e+05    1.319590e-08    3.041105e-12    9.089775e-09    9.526555e-10   -1.030000e+00    1.150191e+00    3.470273e-02
    2.120993e+01    1.323890e+03    1.363008e-03    3.596465e+05    1.279329e-08    2.779197e-12    8.559440e-09    9.019080e-10   -1.020000e+00    1.150191e+00    3.407342e-02
    2.124882e+01    1.314917e+03    1.102342e-03    3.006301e+05    1.240049e-08    2.538305e-12    8.040190e-09    8.518575e-10   -1.010000e+00    1.150191e+00    3.354795e-02
    2.133458e+01    1.310582e+03    8.909750e-04    2.517048e+05    1.201927e-08    2.316960e-12    7.534245e-09    8.027295e-10   -1.000000e+00    1.150191e+00    3.311038e-02
    2.147242e+01    1.310929e+03    7.193350e-04    2.109900e+05    1.165120e-08    2.113772e-12    7.043585e-09    7.547335e-10   -9.900000e-01    1.150191e+00    3.274690e-02
    2.166734e+01    1.316013e+03    5.797965e-04    1.769763e+05    1.129760e-08    1.927425e-12    6.569940e-09    7.080580e-10   -9.800000e-01    1.150191e+00    3.244568e-02
    2.192397e+01    1.325909e+03    4.662745e-04    1.484517e+05    1.095963e-08    1.756678e-12    6.114770e-09    6.628685e-10   -9.700000e-01    1.150191e+00    3.219662e-02
    2.224678e+01    1.340708e+03    3.738960e-04    1.244431e+05    1.063818e-08    1.600361e-12    5.679245e-09    6.193060e-10   -9.600000e-01    1.150191e+00    3.199117e-02
    2.263962e+01    1.360502e+03    2.987494e-04    1.041673e+05    1.033392e-08    1.457372e-12    5.264235e-09    5.774855e-10   -9.500000e-01    1.150191e+00    3.182215e-02
    2.310544e+01    1.385359e+03    2.376839e-04    8.699325e+04    1.004728e-08    1.326678e-12    4.870347e-09    5.374960e-10   -9.400000e-01    1.150191e+00    3.168350e-02
    2.364568e+01    1.415291e+03    1.881517e-04    7.241145e+04    9.778510e-09    1.207310e-12    4.497914e-09    4.994012e-10   -9.300000e-01    1.150191e+00    3.157016e-02
    2.425965e+01    1.450214e+03    1.480844e-04    6.001065e+04    9.527645e-09    1.098363e-12    4.147025e-09    4.632418e-10   -9.200000e-01    1.150191e+00    3.147789e-02
    2.494383e+01    1.489914e+03    1.157949e-04    4.945893e+04    9.294545e-09    9.989925e-13    3.817549e-09    4.290350e-10   -9.100000e-01    1.150191e+00    3.140315e-02
    2.569121e+01    1.534010e+03    8.989965e-05    4.048818e+04    9.078925e-09    9.084100e-13    3.509157e-09    3.967786e-10   -9.000000e-01    1.150191e+00    3.134295e-02
    2.649074e+01    1.581941e+03    6.925685e-05    3.288109e+04    8.880365e-09    8.258850e-13    3.221355e-09    3.664522e-10   -8.900000e-01    1.150191e+00    3.129479e-02
    2.732709e+01    1.632955e+03    5.291870e-05    2.645980e+04    8.698335e-09    7.507390e-13    2.953513e-09    3.380199e-10   -8.800000e-01    1.150191e+00    3.125658e-02
    2.818063e+01    1.686141e+03    4.009384e-05    2.107590e+04    8.532225e-09    6.823440e-13    2.704889e-09    3.114330e-10   -8.700000e-01    1.150191e+00    3.122652e-02
    2.902745e+01    1.740468e+03    3.011928e-05    1.660194e+04    8.381365e-09    6.201195e-13    2.474654e-09    2.866318e-10   -8.600000e-01    1.150191e+00    3.120310e-02
    2.983973e+01    1.794853e+03    2.243873e-05    1.292471e+04    8.245030e-09    5.635300e-13    2.261921e-09    2.635486e-10   -8.500000e-01    1.150191e+00    3.118504e-02
    3.058567e+01    1.848233e+03    1.658654e-05    9.940440e+03    8.122475e-09    5.120830e-13    2.065762e-09    2.421090e-10   -8.400000e-01    1.150191e+00    3.117127e-02
    3.122906e+01    1.899638e+03    1.217539e-05    7.552146e+03    8.012930e-09    4.653243e-13    1.885226e-09    2.222342e-10   -8.300000e-01    1.150191e+00    3.116088e-02
    3.172827e+01    1.948254e+03    8.886115e-06    5.668824e+03    7.915630e-09    4.228375e-13    1.719359e-09    2.038429e-10   -8.200000e-01    1.150191e+00    3.115312e-02
    3.203426e+01    1.993455e+03    6.459125e-06    4.205876e+03    7.829825e-09    3.842408e-13    1.567213e-09    1.868521e-10   -8.100000e-01    1.150191e+00    3.114740e-02
    3.208857e+01    2.034830e+03    4.686296e-06    3.086250e+03    7.754775e-09    3.491838e-13    1.427856e-09    1.711787e-10   -8.000000e-01    1.150191e+00    3.114322e-02
    3.182162e+01    2.072159e+03    3.403458e-06    2.241558e+03    7.689760e-09    3.173465e-13    1.300388e-09    1.567405e-10   -7.900000e-01    1.150191e+00    3.114019e-02
    3.115401e+01    2.105407e+03    2.483193e-06    1.612823e+03    7.634100e-09    2.884360e-13    1.183935e-09    1.434569e-10   -7.800000e-01    1.150191e+00    3.113802e-02
    3.000344e+01    2.134687e+03    1.828183e-06    1.150624e+03    7.587130e-09    2.621850e-13    1.077666e-09    1.312498e-10   -7.700000e-01    1.150191e+00    3.113648e-02
    2.830108e+01    2.160208e+03    1.365226e-06    8.146705e+02    7.548240e-09    2.383495e-13    9.807880e-10    1.200435e-10   -7.600000e-01    1.150191e+00    3.113539e-02
    2.601864e+01    2.182262e+03    1.040024e-06    5.729446e+02    7.516840e-09    2.167072e-13    8.925530e-10    1.097659e-10   -7.500000e-01    1.150191e+00    3.113462e-02
    2.320020e+01    2.201175e+03    8.128120e-07    4.005729e+02    7.492390e-09    1.970557e-13    8.122550e-10    1.003479e-10   -7.400000e-01    1.150191e+00    3.113408e-02
    1.998306e+01    2.217291e+03    6.548025e-07    2.786235e+02    7.474370e-09    1.792104e-13    7.392335e-10    9.172420e-11   -7.300000e-01    1.150191e+00    3.113371e-02
    1.658789e+01    2.230944e+03    5.453550e-07    1.929378e+02    7.462310e-09    1.630039e-13    6.728710e-10    8.383320e-11   -7.200000e-01    1.150191e+00    3.113345e-02
