# sky130 pfet_01v8 gm/ID Processed Lookup Table
# Corner: sf
# Temperature: 85C
# W = 2.0 um
# L = 2 um (2000 nm)
# Columns: gm/id [1/V]  gm/gds [V/V]  id/W [A/m]  ft [Hz]  Cgg/W [F/m]  Cgd/W [F/m]  Cgs/W [F/m]  Cdb/W [F/m]  vgs [V]  vth [V]  vdsat [V]
# vdsat = BSIM4 saturation voltage (|VDS|_sat, positive); use for headroom / saturation / cascode-bias calculations
#           gm/id          gm/gds            id/W              ft           Cgg/W           Cgd/W           Cgs/W           Cdb/W             vgs             vth           vdsat
    1.851364e+00    3.380450e+00    8.016890e+00    2.021186e+08    1.168723e-08    1.179188e-09    1.049051e-08    1.286096e-09   -1.800000e+00    9.548297e-01    7.123382e-01
    1.887491e+00    3.564841e+00    7.868470e+00    2.030054e+08    1.164362e-08    1.117940e-09    1.049476e-08    1.277129e-09   -1.790000e+00    9.548297e-01    7.045048e-01
    1.924673e+00    3.766863e+00    7.719870e+00    2.038460e+08    1.160072e-08    1.058413e-09    1.049809e-08    1.268319e-09   -1.780000e+00    9.548297e-01    6.966727e-01
    1.962886e+00    3.988713e+00    7.571265e+00    2.046340e+08    1.155862e-08    1.000711e-09    1.050048e-08    1.259682e-09   -1.770000e+00    9.548297e-01    6.888419e-01
    2.002150e+00    4.232892e+00    7.422650e+00    2.053631e+08    1.151737e-08    9.449255e-10    1.050191e-08    1.251229e-09   -1.760000e+00    9.548297e-01    6.810123e-01
    2.042467e+00    4.502228e+00    7.274055e+00    2.060262e+08    1.147703e-08    8.911330e-10    1.050237e-08    1.242970e-09   -1.750000e+00    9.548297e-01    6.731839e-01
    2.083836e+00    4.799914e+00    7.125525e+00    2.066161e+08    1.143764e-08    8.393950e-10    1.050185e-08    1.234916e-09   -1.740000e+00    9.548297e-01    6.653565e-01
    2.126248e+00    5.129550e+00    6.977100e+00    2.071251e+08    1.139925e-08    7.897585e-10    1.050035e-08    1.227075e-09   -1.730000e+00    9.548297e-01    6.575301e-01
    2.169683e+00    5.495156e+00    6.828840e+00    2.075455e+08    1.136188e-08    7.422550e-10    1.049787e-08    1.219453e-09   -1.720000e+00    9.548297e-01    6.497046e-01
    2.214124e+00    5.901223e+00    6.680790e+00    2.078696e+08    1.132554e-08    6.969010e-10    1.049442e-08    1.212055e-09   -1.710000e+00    9.548297e-01    6.418800e-01
    2.259537e+00    6.352713e+00    6.533020e+00    2.080895e+08    1.129025e-08    6.536995e-10    1.048999e-08    1.204885e-09   -1.700000e+00    9.548297e-01    6.340561e-01
    2.305895e+00    6.855076e+00    6.385580e+00    2.081979e+08    1.125599e-08    6.126395e-10    1.048460e-08    1.197945e-09   -1.690000e+00    9.548297e-01    6.262330e-01
    2.353159e+00    7.414248e+00    6.238550e+00    2.081877e+08    1.122277e-08    5.736965e-10    1.047827e-08    1.191234e-09   -1.680000e+00    9.548297e-01    6.184104e-01
    2.401290e+00    8.036626e+00    6.092000e+00    2.080526e+08    1.119056e-08    5.368365e-10    1.047101e-08    1.184752e-09   -1.670000e+00    9.548297e-01    6.105885e-01
    2.450253e+00    8.729033e+00    5.946005e+00    2.077869e+08    1.115933e-08    5.020130e-10    1.046283e-08    1.178496e-09   -1.660000e+00    9.548297e-01    6.027670e-01
    2.500013e+00    9.498679e+00    5.800645e+00    2.073866e+08    1.112905e-08    4.691731e-10    1.045376e-08    1.172462e-09   -1.650000e+00    9.548297e-01    5.949460e-01
    2.550546e+00    1.035307e+01    5.656000e+00    2.068484e+08    1.109969e-08    4.382546e-10    1.044379e-08    1.166644e-09   -1.640000e+00    9.548297e-01    5.871254e-01
    2.601833e+00    1.129994e+01    5.512155e+00    2.061706e+08    1.107118e-08    4.091901e-10    1.043296e-08    1.161037e-09   -1.630000e+00    9.548297e-01    5.793050e-01
    2.653862e+00    1.234715e+01    5.369195e+00    2.053531e+08    1.104350e-08    3.819071e-10    1.042128e-08    1.155633e-09   -1.620000e+00    9.548297e-01    5.714850e-01
    2.706644e+00    1.350260e+01    5.227200e+00    2.043967e+08    1.101658e-08    3.563298e-10    1.040876e-08    1.150425e-09   -1.610000e+00    9.548297e-01    5.636651e-01
    2.760194e+00    1.477414e+01    5.086255e+00    2.033041e+08    1.099036e-08    3.323799e-10    1.039541e-08    1.145403e-09   -1.600000e+00    9.548297e-01    5.558454e-01
    2.814542e+00    1.616949e+01    4.946446e+00    2.020790e+08    1.096478e-08    3.099777e-10    1.038124e-08    1.140558e-09   -1.590000e+00    9.548297e-01    5.480258e-01
    2.869737e+00    1.769610e+01    4.807843e+00    2.007260e+08    1.093979e-08    2.890433e-10    1.036627e-08    1.135880e-09   -1.580000e+00    9.548297e-01    5.402062e-01
    2.925837e+00    1.936123e+01    4.670524e+00    1.992505e+08    1.091532e-08    2.694970e-10    1.035048e-08    1.131359e-09   -1.570000e+00    9.548297e-01    5.323866e-01
    2.982914e+00    2.117182e+01    4.534562e+00    1.976589e+08    1.089131e-08    2.512605e-10    1.033390e-08    1.126984e-09   -1.560000e+00    9.548297e-01    5.245671e-01
    3.041050e+00    2.313447e+01    4.400023e+00    1.959575e+08    1.086768e-08    2.342568e-10    1.031651e-08    1.122746e-09   -1.550000e+00    9.548297e-01    5.167474e-01
    3.100338e+00    2.525555e+01    4.266969e+00    1.941528e+08    1.084439e-08    2.184115e-10    1.029833e-08    1.118633e-09   -1.540000e+00    9.548297e-01    5.089277e-01
    3.160879e+00    2.754110e+01    4.135460e+00    1.922518e+08    1.082135e-08    2.036525e-10    1.027933e-08    1.114634e-09   -1.530000e+00    9.548297e-01    5.011078e-01
    3.222783e+00    2.999701e+01    4.005553e+00    1.902610e+08    1.079851e-08    1.899105e-10    1.025951e-08    1.110738e-09   -1.520000e+00    9.548297e-01    4.932878e-01
    3.286163e+00    3.262898e+01    3.877296e+00    1.881866e+08    1.077580e-08    1.771194e-10    1.023886e-08    1.106935e-09   -1.510000e+00    9.548297e-01    4.854677e-01
    3.351148e+00    3.544266e+01    3.750739e+00    1.860349e+08    1.075316e-08    1.652161e-10    1.021737e-08    1.103212e-09   -1.500000e+00    9.548297e-01    4.776475e-01
    3.417860e+00    3.844365e+01    3.625925e+00    1.838115e+08    1.073052e-08    1.541409e-10    1.019501e-08    1.099561e-09   -1.490000e+00    9.548297e-01    4.698271e-01
    3.486437e+00    4.163765e+01    3.502894e+00    1.815216e+08    1.070781e-08    1.438372e-10    1.017177e-08    1.095971e-09   -1.480000e+00    9.548297e-01    4.620067e-01
    3.557020e+00    4.503054e+01    3.381684e+00    1.791703e+08    1.068498e-08    1.342517e-10    1.014761e-08    1.092429e-09   -1.470000e+00    9.548297e-01    4.541862e-01
    3.629753e+00    4.862841e+01    3.262331e+00    1.767619e+08    1.066195e-08    1.253343e-10    1.012251e-08    1.088927e-09   -1.460000e+00    9.548297e-01    4.463657e-01
    3.704791e+00    5.243769e+01    3.144866e+00    1.743006e+08    1.063867e-08    1.170382e-10    1.009644e-08    1.085453e-09   -1.450000e+00    9.548297e-01    4.385453e-01
    3.782292e+00    5.646519e+01    3.029320e+00    1.717899e+08    1.061507e-08    1.093191e-10    1.006936e-08    1.081997e-09   -1.440000e+00    9.548297e-01    4.307250e-01
    3.862422e+00    6.071821e+01    2.915720e+00    1.692332e+08    1.059107e-08    1.021361e-10    1.004124e-08    1.078548e-09   -1.430000e+00    9.548297e-01    4.229051e-01
    3.945361e+00    6.520466e+01    2.804093e+00    1.666335e+08    1.056664e-08    9.545090e-11    1.001203e-08    1.075097e-09   -1.420000e+00    9.548297e-01    4.150855e-01
    4.031289e+00    6.993296e+01    2.694465e+00    1.639934e+08    1.054169e-08    8.922770e-11    9.981690e-09    1.071632e-09   -1.410000e+00    9.548297e-01    4.072666e-01
    4.120399e+00    7.491227e+01    2.586858e+00    1.613149e+08    1.051617e-08    8.343330e-11    9.950165e-09    1.068145e-09   -1.400000e+00    9.548297e-01    3.994486e-01
    4.212899e+00    8.015255e+01    2.481294e+00    1.586004e+08    1.048999e-08    7.803675e-11    9.917410e-09    1.064624e-09   -1.390000e+00    9.548297e-01    3.916315e-01
    4.309002e+00    8.566451e+01    2.377796e+00    1.558513e+08    1.046311e-08    7.300950e-11    9.883370e-09    1.061058e-09   -1.380000e+00    9.548297e-01    3.838159e-01
    4.408935e+00    9.145977e+01    2.276382e+00    1.530693e+08    1.043545e-08    6.832485e-11    9.847980e-09    1.057438e-09   -1.370000e+00    9.548297e-01    3.760020e-01
    4.512937e+00    9.755080e+01    2.177074e+00    1.502552e+08    1.040693e-08    6.395820e-11    9.811180e-09    1.053752e-09   -1.360000e+00    9.548297e-01    3.681902e-01
    4.621265e+00    1.039512e+02    2.079889e+00    1.474104e+08    1.037751e-08    5.988665e-11    9.772910e-09    1.049991e-09   -1.350000e+00    9.548297e-01    3.603811e-01
    4.734186e+00    1.106755e+02    1.984845e+00    1.445353e+08    1.034709e-08    5.608900e-11    9.733090e-09    1.046144e-09   -1.340000e+00    9.548297e-01    3.525751e-01
    4.851982e+00    1.177393e+02    1.891962e+00    1.416304e+08    1.031561e-08    5.254565e-11    9.691660e-09    1.042198e-09   -1.330000e+00    9.548297e-01    3.447730e-01
    4.974955e+00    1.251593e+02    1.801256e+00    1.386961e+08    1.028301e-08    4.923848e-11    9.648535e-09    1.038143e-09   -1.320000e+00    9.548297e-01    3.369754e-01
    5.103422e+00    1.329533e+02    1.712744e+00    1.357326e+08    1.024920e-08    4.615066e-11    9.603640e-09    1.033969e-09   -1.310000e+00    9.548297e-01    3.291834e-01
    5.237715e+00    1.411405e+02    1.626444e+00    1.327398e+08    1.021410e-08    4.326664e-11    9.556890e-09    1.029663e-09   -1.300000e+00    9.548297e-01    3.213978e-01
    5.378188e+00    1.497408e+02    1.542373e+00    1.297174e+08    1.017765e-08    4.057204e-11    9.508205e-09    1.025213e-09   -1.290000e+00    9.548297e-01    3.136198e-01
    5.525202e+00    1.587754e+02    1.460546e+00    1.266650e+08    1.013975e-08    3.805352e-11    9.457490e-09    1.020609e-09   -1.280000e+00    9.548297e-01    3.058508e-01
    5.679151e+00    1.682669e+02    1.380982e+00    1.235820e+08    1.010035e-08    3.569877e-11    9.404660e-09    1.015838e-09   -1.270000e+00    9.548297e-01    2.980923e-01
    5.840426e+00    1.782382e+02    1.303696e+00    1.204679e+08    1.005934e-08    3.349638e-11    9.349620e-09    1.010886e-09   -1.260000e+00    9.548297e-01    2.903461e-01
    6.009447e+00    1.887135e+02    1.228705e+00    1.173219e+08    1.001667e-08    3.143578e-11    9.292280e-09    1.005743e-09   -1.250000e+00    9.548297e-01    2.826142e-01
    6.186642e+00    1.997175e+02    1.156025e+00    1.141432e+08    9.972230e-09    2.950719e-11    9.232535e-09    1.000395e-09   -1.240000e+00    9.548297e-01    2.748987e-01
    6.372440e+00    2.112751e+02    1.085672e+00    1.109308e+08    9.925955e-09    2.770157e-11    9.170285e-09    9.948290e-10   -1.230000e+00    9.548297e-01    2.672024e-01
    6.567293e+00    2.234117e+02    1.017662e+00    1.076841e+08    9.877765e-09    2.601053e-11    9.105440e-09    9.890325e-10   -1.220000e+00    9.548297e-01    2.595282e-01
    6.771634e+00    2.361519e+02    9.520110e-01    1.044021e+08    9.827575e-09    2.442628e-11    9.037895e-09    9.829925e-10   -1.210000e+00    9.548297e-01    2.518794e-01
    6.985902e+00    2.495196e+02    8.887335e-01    1.010843e+08    9.775305e-09    2.294164e-11    8.967550e-09    9.766955e-10   -1.200000e+00    9.548297e-01    2.442599e-01
    7.210517e+00    2.635371e+02    8.278435e-01    9.773035e+07    9.720875e-09    2.154992e-11    8.894305e-09    9.701285e-10   -1.190000e+00    9.548297e-01    2.366737e-01
    7.445870e+00    2.782240e+02    7.693540e-01    9.433986e+07    9.664215e-09    2.024492e-11    8.818060e-09    9.632785e-10   -1.180000e+00    9.548297e-01    2.291258e-01
    7.692327e+00    2.935974e+02    7.132770e-01    9.091335e+07    9.605245e-09    1.902091e-11    8.738725e-09    9.561320e-10   -1.170000e+00    9.548297e-01    2.216216e-01
    7.950190e+00    3.096690e+02    6.596220e-01    8.745147e+07    9.543895e-09    1.787255e-11    8.656205e-09    9.486770e-10   -1.160000e+00    9.548297e-01    2.141668e-01
    8.219690e+00    3.264451e+02    6.083970e-01    8.395566e+07    9.480095e-09    1.679488e-11    8.570405e-09    9.409005e-10   -1.150000e+00    9.548297e-01    2.067683e-01
    8.500988e+00    3.439247e+02    5.596065e-01    8.042813e+07    9.413785e-09    1.578331e-11    8.481250e-09    9.327900e-10   -1.140000e+00    9.548297e-01    1.994333e-01
    8.794115e+00    3.620979e+02    5.132525e-01    7.687201e+07    9.344910e-09    1.483357e-11    8.388655e-09    9.243340e-10   -1.130000e+00    9.548297e-01    1.921699e-01
    9.098972e+00    3.809441e+02    4.693329e-01    7.329152e+07    9.273415e-09    1.394167e-11    8.292555e-09    9.155215e-10   -1.120000e+00    9.548297e-01    1.849870e-01
    9.415302e+00    4.004297e+02    4.278404e-01    6.969206e+07    9.199260e-09    1.310393e-11    8.192880e-09    9.063415e-10   -1.110000e+00    9.548297e-01    1.778943e-01
    9.742662e+00    4.205070e+02    3.887628e-01    6.608047e+07    9.122405e-09    1.231689e-11    8.089585e-09    8.967845e-10   -1.100000e+00    9.548297e-01    1.709019e-01
    1.008039e+01    4.411115e+02    3.520815e-01    6.246494e+07    9.042825e-09    1.157737e-11    7.982625e-09    8.868425e-10   -1.090000e+00    9.548297e-01    1.640213e-01
    1.042758e+01    4.621609e+02    3.177707e-01    5.885524e+07    8.960505e-09    1.088237e-11    7.871970e-09    8.765070e-10   -1.080000e+00    9.548297e-01    1.572640e-01
    1.078309e+01    4.835544e+02    2.857974e-01    5.526268e+07    8.875435e-09    1.022913e-11    7.757600e-09    8.657715e-10   -1.070000e+00    9.548297e-01    1.506427e-01
    1.114548e+01    5.051713e+02    2.561198e-01    5.170002e+07    8.787625e-09    9.615030e-12    7.639520e-09    8.546315e-10   -1.060000e+00    9.548297e-01    1.441701e-01
    1.151306e+01    5.268717e+02    2.286875e-01    4.818137e+07    8.697090e-09    9.037675e-12    7.517740e-09    8.430840e-10   -1.050000e+00    9.548297e-01    1.378597e-01
    1.188385e+01    5.484984e+02    2.034404e-01    4.472195e+07    8.603870e-09    8.494800e-12    7.392295e-09    8.311260e-10   -1.040000e+00    9.548297e-01    1.317248e-01
    1.225565e+01    5.698797e+02    1.803097e-01    4.133779e+07    8.508015e-09    7.984295e-12    7.263235e-09    8.187585e-10   -1.030000e+00    9.548297e-01    1.257788e-01
    1.262606e+01    5.908327e+02    1.592166e-01    3.804536e+07    8.409580e-09    7.504190e-12    7.130630e-09    8.059830e-10   -1.020000e+00    9.548297e-01    1.200349e-01
    1.299255e+01    6.111704e+02    1.400735e-01    3.486102e+07    8.308650e-09    7.052655e-12    6.994570e-09    7.928040e-10   -1.010000e+00    9.548297e-01    1.145056e-01
    1.335253e+01    6.307077e+02    1.227852e-01    3.180049e+07    8.205325e-09    6.627955e-12    6.855165e-09    7.792275e-10   -1.000000e+00    9.548297e-01    1.092025e-01
    1.370351e+01    6.492705e+02    1.072483e-01    2.887838e+07    8.099715e-09    6.228485e-12    6.712555e-09    7.652625e-10   -9.900000e-01    9.548297e-01    1.041361e-01
    1.404314e+01    6.667039e+02    9.335445e-02    2.610758e+07    7.991950e-09    5.852740e-12    6.566890e-09    7.509200e-10   -9.800000e-01    9.548297e-01    9.931558e-02
    1.436938e+01    6.828814e+02    8.099025e-02    2.349874e+07    7.882180e-09    5.499300e-12    6.418350e-09    7.362125e-10   -9.700000e-01    9.548297e-01    9.474830e-02
    1.468062e+01    6.977136e+02    7.003995e-02    2.105997e+07    7.770565e-09    5.166845e-12    6.267130e-09    7.211570e-10   -9.600000e-01    9.548297e-01    9.043981e-02
    1.497580e+01    7.111546e+02    6.038680e-02    1.879649e+07    7.657295e-09    4.854130e-12    6.113455e-09    7.057715e-10   -9.500000e-01    9.548297e-01    8.639357e-02
    1.525451e+01    7.232066e+02    5.191485e-02    1.671058e+07    7.542555e-09    4.559991e-12    5.957565e-09    6.900760e-10   -9.400000e-01    9.548297e-01    8.261095e-02
    1.551703e+01    7.339238e+02    4.451091e-02    1.480155e+07    7.426565e-09    4.283336e-12    5.799720e-09    6.740945e-10   -9.300000e-01    9.548297e-01    7.909113e-02
    1.576436e+01    7.434073e+02    3.806577e-02    1.306594e+07    7.309545e-09    4.023134e-12    5.640190e-09    6.578515e-10   -9.200000e-01    9.548297e-01    7.583119e-02
    1.599827e+01    7.518075e+02    3.247569e-02    1.149789e+07    7.191735e-09    3.778423e-12    5.479280e-09    6.413750e-10   -9.100000e-01    9.548297e-01    7.282617e-02
    1.622111e+01    7.593086e+02    2.764340e-02    1.008940e+07    7.073375e-09    3.548293e-12    5.317290e-09    6.246940e-10   -9.000000e-01    9.548297e-01    7.006929e-02
    1.643581e+01    7.661276e+02    2.347878e-02    8.830937e+06    6.954725e-09    3.331893e-12    5.154540e-09    6.078395e-10   -8.900000e-01    9.548297e-01    6.755213e-02
    1.664569e+01    7.724987e+02    1.989934e-02    7.711798e+06    6.836045e-09    3.128419e-12    4.991356e-09    5.908435e-10   -8.800000e-01    9.548297e-01    6.526485e-02
    1.685427e+01    7.786628e+02    1.683041e-02    6.720643e+06    6.717595e-09    2.937116e-12    4.828075e-09    5.737405e-10   -8.700000e-01    9.548297e-01    6.319648e-02
    1.706512e+01    7.848556e+02    1.420500e-02    5.845883e+06    6.599645e-09    2.757272e-12    4.665034e-09    5.565650e-10   -8.600000e-01    9.548297e-01    6.133516e-02
    1.728166e+01    7.912972e+02    1.196357e-02    5.076052e+06    6.482465e-09    2.588220e-12    4.502570e-09    5.393525e-10   -8.500000e-01    9.548297e-01    5.966837e-02
    1.750695e+01    7.981826e+02    1.005361e-02    4.400119e+06    6.366315e-09    2.429326e-12    4.341019e-09    5.221385e-10   -8.400000e-01    9.548297e-01    5.818321e-02
    1.774356e+01    8.056724e+02    8.429090e-03    3.807680e+06    6.251455e-09    2.279998e-12    4.180712e-09    5.049585e-10   -8.300000e-01    9.548297e-01    5.686656e-02
    1.799339e+01    8.138902e+02    7.049920e-03    3.289126e+06    6.138140e-09    2.139675e-12    4.021969e-09    4.878487e-10   -8.200000e-01    9.548297e-01    5.570531e-02
    1.825767e+01    8.229159e+02    5.881270e-03    2.835724e+06    6.026605e-09    2.007829e-12    3.865102e-09    4.708436e-10   -8.100000e-01    9.548297e-01    5.468648e-02
    1.853679e+01    8.327866e+02    4.893036e-03    2.439638e+06    5.917085e-09    1.883962e-12    3.710410e-09    4.539775e-10   -8.000000e-01    9.548297e-01    5.379739e-02
    1.883038e+01    8.434963e+02    4.059212e-03    2.093917e+06    5.809805e-09    1.767606e-12    3.558172e-09    4.372832e-10   -7.900000e-01    9.548297e-01    5.302574e-02
    1.913732e+01    8.550013e+02    3.357380e-03    1.792458e+06    5.704960e-09    1.658317e-12    3.408654e-09    4.207923e-10   -7.800000e-01    9.548297e-01    5.235974e-02
    1.945580e+01    8.672197e+02    2.768219e-03    1.529921e+06    5.602740e-09    1.555679e-12    3.262099e-09    4.045349e-10   -7.700000e-01    9.548297e-01    5.178815e-02
    1.978342e+01    8.800431e+02    2.275078e-03    1.301647e+06    5.503320e-09    1.459298e-12    3.118731e-09    3.885389e-10   -7.600000e-01    9.548297e-01    5.130039e-02
    2.011740e+01    8.933396e+02    1.863608e-03    1.103576e+06    5.406850e-09    1.368804e-12    2.978751e-09    3.728305e-10   -7.500000e-01    9.548297e-01    5.088653e-02
    2.045462e+01    9.069629e+02    1.521438e-03    9.321533e+05    5.313470e-09    1.283846e-12    2.842337e-09    3.574336e-10   -7.400000e-01    9.548297e-01    5.053738e-02
    2.079182e+01    9.207592e+02    1.237907e-03    7.842530e+05    5.223295e-09    1.204095e-12    2.709644e-09    3.423699e-10   -7.300000e-01    9.548297e-01    5.024449e-02
    2.112578e+01    9.345745e+02    1.003837e-03    6.571059e+05    5.136425e-09    1.129240e-12    2.580803e-09    3.276588e-10   -7.200000e-01    9.548297e-01    5.000017e-02
