# sky130 pfet_01v8 gm/ID Processed Lookup Table
# Corner: ss
# Temperature: -40C
# W = 2.0 um
# L = 1.5 um (1500 nm)
# Columns: gm/id [1/V]  gm/gds [V/V]  id/W [A/m]  ft [Hz]  Cgg/W [F/m]  Cgd/W [F/m]  Cgs/W [F/m]  Cdb/W [F/m]  vgs [V]  vth [V]  vdsat [V]
# vdsat = BSIM4 saturation voltage (|VDS|_sat, positive); use for headroom / saturation / cascode-bias calculations
#           gm/id          gm/gds            id/W              ft           Cgg/W           Cgd/W           Cgs/W           Cdb/W             vgs             vth           vdsat
    2.678098e+00    1.358849e+01    1.079911e+01    5.279867e+08    8.717890e-09    2.781437e-10    8.222780e-09    8.160140e-10   -1.800000e+00    1.135011e+00    5.596683e-01
    2.731650e+00    1.482984e+01    1.050990e+01    5.251294e+08    8.701160e-09    2.595760e-10    8.217575e-09    8.128505e-10   -1.790000e+00    1.135011e+00    5.516780e-01
    2.785428e+00    1.617894e+01    1.022498e+01    5.219170e+08    8.685060e-09    2.421876e-10    8.211900e-09    8.098175e-10   -1.780000e+00    1.135011e+00    5.436905e-01
    2.840303e+00    1.763982e+01    9.941375e+00    5.183633e+08    8.669560e-09    2.259196e-10    8.205780e-09    8.069105e-10   -1.770000e+00    1.135011e+00    5.357059e-01
    2.896076e+00    1.921600e+01    9.660295e+00    5.144849e+08    8.654615e-09    2.107130e-10    8.199235e-09    8.041230e-10   -1.760000e+00    1.135011e+00    5.277240e-01
    2.952826e+00    2.091053e+01    9.381885e+00    5.102988e+08    8.640195e-09    1.965097e-10    8.192270e-09    8.014500e-10   -1.750000e+00    1.135011e+00    5.197448e-01
    3.010648e+00    2.272605e+01    9.106280e+00    5.058233e+08    8.626255e-09    1.832524e-10    8.184910e-09    7.988855e-10   -1.740000e+00    1.135011e+00    5.117682e-01
    3.069644e+00    2.466483e+01    8.833610e+00    5.010767e+08    8.612755e-09    1.708853e-10    8.177155e-09    7.964235e-10   -1.730000e+00    1.135011e+00    5.037942e-01
    3.129922e+00    2.672894e+01    8.563995e+00    4.960767e+08    8.599660e-09    1.593545e-10    8.169020e-09    7.940585e-10   -1.720000e+00    1.135011e+00    4.958226e-01
    3.191600e+00    2.892026e+01    8.297550e+00    4.908404e+08    8.586935e-09    1.486077e-10    8.160515e-09    7.917840e-10   -1.710000e+00    1.135011e+00    4.878534e-01
    3.254800e+00    3.124067e+01    8.034380e+00    4.853849e+08    8.574535e-09    1.385953e-10    8.151645e-09    7.895950e-10   -1.700000e+00    1.135011e+00    4.798866e-01
    3.319654e+00    3.369205e+01    7.774575e+00    4.797258e+08    8.562420e-09    1.292693e-10    8.142415e-09    7.874845e-10   -1.690000e+00    1.135011e+00    4.719221e-01
    3.386296e+00    3.627652e+01    7.518230e+00    4.738772e+08    8.550565e-09    1.205845e-10    8.132820e-09    7.854475e-10   -1.680000e+00    1.135011e+00    4.639598e-01
    3.454868e+00    3.899634e+01    7.265425e+00    4.678533e+08    8.538920e-09    1.124980e-10    8.122865e-09    7.834780e-10   -1.670000e+00    1.135011e+00    4.559997e-01
    3.525520e+00    4.185417e+01    7.016235e+00    4.616662e+08    8.527455e-09    1.049691e-10    8.112550e-09    7.815705e-10   -1.660000e+00    1.135011e+00    4.480417e-01
    3.598410e+00    4.485309e+01    6.770730e+00    4.553276e+08    8.516130e-09    9.795965e-11    8.101870e-09    7.797195e-10   -1.650000e+00    1.135011e+00    4.400857e-01
    3.673700e+00    4.799664e+01    6.528975e+00    4.488475e+08    8.504915e-09    9.143365e-11    8.090810e-09    7.779190e-10   -1.640000e+00    1.135011e+00    4.321318e-01
    3.751561e+00    5.128888e+01    6.291040e+00    4.422363e+08    8.493765e-09    8.535740e-11    8.079370e-09    7.761640e-10   -1.630000e+00    1.135011e+00    4.241798e-01
    3.832182e+00    5.473449e+01    6.056970e+00    4.355022e+08    8.482645e-09    7.969930e-11    8.067530e-09    7.744485e-10   -1.620000e+00    1.135011e+00    4.162297e-01
    3.915750e+00    5.833880e+01    5.826830e+00    4.286530e+08    8.471525e-09    7.442995e-11    8.055280e-09    7.727680e-10   -1.610000e+00    1.135011e+00    4.082815e-01
    4.002479e+00    6.210786e+01    5.600660e+00    4.216963e+08    8.460355e-09    6.952170e-11    8.042605e-09    7.711165e-10   -1.600000e+00    1.135011e+00    4.003351e-01
    4.092587e+00    6.604850e+01    5.378515e+00    4.146383e+08    8.449110e-09    6.494905e-11    8.029480e-09    7.694885e-10   -1.590000e+00    1.135011e+00    3.923906e-01
    4.186313e+00    7.016838e+01    5.160435e+00    4.074853e+08    8.437740e-09    6.068800e-11    8.015880e-09    7.678790e-10   -1.580000e+00    1.135011e+00    3.844478e-01
    4.283911e+00    7.447602e+01    4.946463e+00    4.002423e+08    8.426210e-09    5.671640e-11    8.001785e-09    7.662825e-10   -1.570000e+00    1.135011e+00    3.765068e-01
    4.385654e+00    7.898096e+01    4.736643e+00    3.929145e+08    8.414475e-09    5.301365e-11    7.987160e-09    7.646925e-10   -1.560000e+00    1.135011e+00    3.685676e-01
    4.491840e+00    8.369371e+01    4.531010e+00    3.855062e+08    8.402490e-09    4.956057e-11    7.971970e-09    7.631045e-10   -1.550000e+00    1.135011e+00    3.606301e-01
    4.602789e+00    8.862595e+01    4.329603e+00    3.780212e+08    8.390215e-09    4.633940e-11    7.956180e-09    7.615120e-10   -1.540000e+00    1.135011e+00    3.526944e-01
    4.718852e+00    9.379060e+01    4.132456e+00    3.704633e+08    8.377600e-09    4.333367e-11    7.939745e-09    7.599085e-10   -1.530000e+00    1.135011e+00    3.447606e-01
    4.840404e+00    9.920178e+01    3.939605e+00    3.628355e+08    8.364590e-09    4.052809e-11    7.922620e-09    7.582885e-10   -1.520000e+00    1.135011e+00    3.368286e-01
    4.967859e+00    1.048751e+02    3.751082e+00    3.551407e+08    8.351135e-09    3.790851e-11    7.904750e-09    7.566445e-10   -1.510000e+00    1.135011e+00    3.288986e-01
    5.101666e+00    1.108279e+02    3.566919e+00    3.473813e+08    8.337175e-09    3.546181e-11    7.886085e-09    7.549700e-10   -1.500000e+00    1.135011e+00    3.209707e-01
    5.242318e+00    1.170789e+02    3.387148e+00    3.395596e+08    8.322650e-09    3.317586e-11    7.866550e-09    7.532580e-10   -1.490000e+00    1.135011e+00    3.130450e-01
    5.390350e+00    1.236489e+02    3.211799e+00    3.316772e+08    8.307490e-09    3.103939e-11    7.846085e-09    7.515005e-10   -1.480000e+00    1.135011e+00    3.051218e-01
    5.546353e+00    1.305605e+02    3.040903e+00    3.237353e+08    8.291635e-09    2.904199e-11    7.824610e-09    7.496885e-10   -1.470000e+00    1.135011e+00    2.972012e-01
    5.710969e+00    1.378389e+02    2.874491e+00    3.157348e+08    8.275005e-09    2.717402e-11    7.802040e-09    7.478140e-10   -1.460000e+00    1.135011e+00    2.892837e-01
    5.884906e+00    1.455112e+02    2.712591e+00    3.076766e+08    8.257515e-09    2.542652e-11    7.778285e-09    7.458675e-10   -1.450000e+00    1.135011e+00    2.813695e-01
    6.068940e+00    1.536073e+02    2.555234e+00    2.995605e+08    8.239085e-09    2.379123e-11    7.753250e-09    7.438390e-10   -1.440000e+00    1.135011e+00    2.734593e-01
    6.263924e+00    1.621601e+02    2.402450e+00    2.913863e+08    8.219620e-09    2.226049e-11    7.726820e-09    7.417170e-10   -1.430000e+00    1.135011e+00    2.655536e-01
    6.470791e+00    1.712053e+02    2.254268e+00    2.831530e+08    8.199020e-09    2.082717e-11    7.698880e-09    7.394905e-10   -1.420000e+00    1.135011e+00    2.576532e-01
    6.690566e+00    1.807818e+02    2.110722e+00    2.748597e+08    8.177170e-09    1.948472e-11    7.669305e-09    7.371470e-10   -1.410000e+00    1.135011e+00    2.497590e-01
    6.924374e+00    1.909318e+02    1.971841e+00    2.665040e+08    8.153965e-09    1.822702e-11    7.637950e-09    7.346720e-10   -1.400000e+00    1.135011e+00    2.418722e-01
    7.173442e+00    2.017015e+02    1.837658e+00    2.580837e+08    8.129275e-09    1.704842e-11    7.604665e-09    7.320525e-10   -1.390000e+00    1.135011e+00    2.339942e-01
    7.439108e+00    2.131398e+02    1.708206e+00    2.495956e+08    8.102970e-09    1.594368e-11    7.569290e-09    7.292715e-10   -1.380000e+00    1.135011e+00    2.261267e-01
    7.722824e+00    2.252997e+02    1.583519e+00    2.410362e+08    8.074900e-09    1.490796e-11    7.531655e-09    7.263130e-10   -1.370000e+00    1.135011e+00    2.182718e-01
    8.026168e+00    2.382376e+02    1.463633e+00    2.324012e+08    8.044925e-09    1.393671e-11    7.491565e-09    7.231585e-10   -1.360000e+00    1.135011e+00    2.104320e-01
    8.350826e+00    2.520123e+02    1.348584e+00    2.236863e+08    8.012870e-09    1.302578e-11    7.448820e-09    7.197890e-10   -1.350000e+00    1.135011e+00    2.026105e-01
    8.698601e+00    2.666847e+02    1.238410e+00    2.148863e+08    7.978570e-09    1.217126e-11    7.403210e-09    7.161840e-10   -1.340000e+00    1.135011e+00    1.948110e-01
    9.071388e+00    2.823168e+02    1.133148e+00    2.059963e+08    7.941840e-09    1.136957e-11    7.354505e-09    7.123210e-10   -1.330000e+00    1.135011e+00    1.870381e-01
    9.471142e+00    2.989692e+02    1.032838e+00    1.970111e+08    7.902490e-09    1.061732e-11    7.302465e-09    7.081765e-10   -1.320000e+00    1.135011e+00    1.792971e-01
    9.899869e+00    3.166995e+02    9.375175e-01    1.879268e+08    7.860320e-09    9.911440e-12    7.246840e-09    7.037260e-10   -1.310000e+00    1.135011e+00    1.715948e-01
    1.035950e+01    3.355571e+02    8.472240e-01    1.787401e+08    7.815115e-09    9.249010e-12    7.187360e-09    6.989435e-10   -1.300000e+00    1.135011e+00    1.639387e-01
    1.085189e+01    3.555804e+02    7.619920e-01    1.694501e+08    7.766660e-09    8.627345e-12    7.123750e-09    6.938010e-10   -1.290000e+00    1.135011e+00    1.563384e-01
    1.137861e+01    3.767889e+02    6.818520e-01    1.600585e+08    7.714730e-09    8.043945e-12    7.055725e-09    6.882700e-10   -1.280000e+00    1.135011e+00    1.488049e-01
    1.194085e+01    3.991759e+02    6.068280e-01    1.505716e+08    7.659100e-09    7.496465e-12    6.982995e-09    6.823210e-10   -1.270000e+00    1.135011e+00    1.413511e-01
    1.253917e+01    4.226987e+02    5.369340e-01    1.410012e+08    7.599535e-09    6.982750e-12    6.905265e-09    6.759240e-10   -1.260000e+00    1.135011e+00    1.339922e-01
    1.317326e+01    4.472671e+02    4.721718e-01    1.313661e+08    7.535810e-09    6.500770e-12    6.822240e-09    6.690475e-10   -1.250000e+00    1.135011e+00    1.267458e-01
    1.384164e+01    4.727301e+02    4.125247e-01    1.216945e+08    7.467700e-09    6.048640e-12    6.733630e-09    6.616610e-10   -1.240000e+00    1.135011e+00    1.196318e-01
    1.454134e+01    4.988643e+02    3.579544e-01    1.120250e+08    7.394985e-09    5.624595e-12    6.639150e-09    6.537330e-10   -1.230000e+00    1.135011e+00    1.126728e-01
    1.526746e+01    5.253606e+02    3.083948e-01    1.024080e+08    7.317460e-09    5.227000e-12    6.538535e-09    6.452345e-10   -1.220000e+00    1.135011e+00    1.058938e-01
    1.601296e+01    5.518175e+02    2.637472e-01    9.290608e+07    7.234950e-09    4.854320e-12    6.431540e-09    6.361365e-10   -1.210000e+00    1.135011e+00    9.932206e-02
    1.676833e+01    5.777402e+02    2.238752e-01    8.359385e+07    7.147290e-09    4.505113e-12    6.317950e-09    6.264130e-10   -1.200000e+00    1.135011e+00    9.298629e-02
    1.752159e+01    6.025505e+02    1.886006e-01    7.455547e+07    7.054355e-09    4.178039e-12    6.197585e-09    6.160400e-10   -1.190000e+00    1.135011e+00    8.691621e-02
    1.825852e+01    6.256115e+02    1.577026e-01    6.588124e+07    6.956050e-09    3.871837e-12    6.070320e-09    6.049985e-10   -1.180000e+00    1.135011e+00    8.114126e-02
    1.896316e+01    6.462678e+02    1.309177e-01    5.766212e+07    6.852335e-09    3.585325e-12    5.936080e-09    5.932725e-10   -1.170000e+00    1.135011e+00    7.568937e-02
    1.961882e+01    6.638994e+02    1.079439e-01    4.998318e+07    6.743215e-09    3.317392e-12    5.794850e-09    5.808525e-10   -1.160000e+00    1.135011e+00    7.058545e-02
    2.020937e+01    6.779869e+02    8.844755e-02    4.291668e+07    6.628765e-09    3.066993e-12    5.646695e-09    5.677360e-10   -1.150000e+00    1.135011e+00    6.584987e-02
    2.072078e+01    6.881738e+02    7.207360e-02    3.651578e+07    6.509115e-09    2.833143e-12    5.491770e-09    5.539270e-10   -1.140000e+00    1.135011e+00    6.149714e-02
    2.114262e+01    6.943169e+02    5.845710e-02    3.080996e+07    6.384475e-09    2.614913e-12    5.330305e-09    5.394385e-10   -1.130000e+00    1.135011e+00    5.753479e-02
    2.146938e+01    6.965137e+02    4.723583e-02    2.580332e+07    6.255120e-09    2.411426e-12    5.162630e-09    5.242910e-10   -1.120000e+00    1.135011e+00    5.396286e-02
    2.170108e+01    6.950966e+02    3.806225e-02    2.147554e+07    6.121415e-09    2.221846e-12    4.989178e-09    5.085155e-10   -1.110000e+00    1.135011e+00    5.077389e-02
    2.184341e+01    6.905950e+02    3.061315e-02    1.778572e+07    5.983800e-09    2.045387e-12    4.810476e-09    4.921532e-10   -1.100000e+00    1.135011e+00    4.795345e-02
    2.190688e+01    6.836752e+02    2.459684e-02    1.467778e+07    5.842780e-09    1.881297e-12    4.627151e-09    4.752538e-10   -1.090000e+00    1.135011e+00    4.548122e-02
    2.190558e+01    6.750657e+02    1.975701e-02    1.208652e+07    5.698950e-09    1.728864e-12    4.439918e-09    4.578774e-10   -1.080000e+00    1.135011e+00    4.333235e-02
    2.185568e+01    6.654897e+02    1.587378e-02    9.943527e+06    5.552955e-09    1.587406e-12    4.249577e-09    4.400925e-10   -1.070000e+00    1.135011e+00    4.147895e-02
    2.177377e+01    6.556076e+02    1.276238e-02    8.181817e+06    5.405495e-09    1.456276e-12    4.056997e-09    4.219759e-10   -1.060000e+00    1.135011e+00    3.989160e-02
    2.167567e+01    6.459818e+02    1.027020e-02    6.739189e+06    5.257315e-09    1.334855e-12    3.863102e-09    4.036109e-10   -1.050000e+00    1.135011e+00    3.854065e-02
    2.157549e+01    6.370618e+02    8.272980e-03    5.560204e+06    5.109190e-09    1.222549e-12    3.668854e-09    3.850863e-10   -1.040000e+00    1.135011e+00    3.739727e-02
    2.148531e+01    6.291867e+02    6.670555e-03    4.597015e+06    4.961898e-09    1.118794e-12    3.475232e-09    3.664945e-10   -1.030000e+00    1.135011e+00    3.643430e-02
    2.141502e+01    6.225994e+02    5.382870e-03    3.809308e+06    4.816220e-09    1.023049e-12    3.283212e-09    3.479291e-10   -1.020000e+00    1.135011e+00    3.562671e-02
    2.137266e+01    6.174671e+02    4.346233e-03    3.163763e+06    4.672913e-09    9.347955e-13    3.093748e-09    3.294837e-10   -1.010000e+00    1.135011e+00    3.495192e-02
    2.136481e+01    6.139051e+02    3.510131e-03    2.633214e+06    4.532695e-09    8.535425e-13    2.907749e-09    3.112497e-10   -1.000000e+00    1.135011e+00    3.438989e-02
    2.139703e+01    6.119953e+02    2.834541e-03    2.195712e+06    4.396236e-09    7.788180e-13    2.726064e-09    2.933143e-10   -9.900000e-01    1.135011e+00    3.392306e-02
    2.147429e+01    6.118059e+02    2.287736e-03    1.833636e+06    4.264141e-09    7.101735e-13    2.549464e-09    2.757588e-10   -9.800000e-01    1.135011e+00    3.353626e-02
    2.160132e+01    6.134046e+02    1.844537e-03    1.532880e+06    4.136944e-09    6.471820e-13    2.378630e-09    2.586575e-10   -9.700000e-01    1.135011e+00    3.321646e-02
    2.178290e+01    6.168656e+02    1.484911e-03    1.282153e+06    4.015097e-09    5.894395e-13    2.214147e-09    2.420762e-10   -9.600000e-01    1.135011e+00    3.295260e-02
    2.202388e+01    6.222730e+02    1.192882e-03    1.072411e+06    3.898971e-09    5.365610e-13    2.056494e-09    2.260715e-10   -9.500000e-01    1.135011e+00    3.273533e-02
    2.232922e+01    6.297227e+02    9.556745e-04    8.963889e+05    3.788849e-09    4.881844e-13    1.906044e-09    2.106907e-10   -9.400000e-01    1.135011e+00    3.255677e-02
    2.270373e+01    6.393134e+02    7.630415e-04    7.482311e+05    3.684933e-09    4.439669e-13    1.763065e-09    1.959708e-10   -9.300000e-01    1.135011e+00    3.241036e-02
    2.315172e+01    6.511374e+02    6.067385e-04    6.232063e+05    3.587345e-09    4.035862e-13    1.627725e-09    1.819396e-10   -9.200000e-01    1.135011e+00    3.229060e-02
    2.367647e+01    6.652649e+02    4.801132e-04    5.174794e+05    3.496131e-09    3.667399e-13    1.500097e-09    1.686153e-10   -9.100000e-01    1.135011e+00    3.219295e-02
    2.427957e+01    6.817266e+02    3.777781e-04    4.279389e+05    3.411271e-09    3.331447e-13    1.380171e-09    1.560077e-10   -9.000000e-01    1.135011e+00    3.211361e-02
    2.496020e+01    7.004932e+02    2.953531e-04    3.520592e+05    3.332684e-09    3.025359e-13    1.267858e-09    1.441182e-10   -8.900000e-01    1.135011e+00    3.204942e-02
    2.571436e+01    7.214555e+02    2.292602e-04    2.877894e+05    3.260242e-09    2.746667e-13    1.163005e-09    1.329415e-10   -8.800000e-01    1.135011e+00    3.199776e-02
    2.653428e+01    7.444103e+02    1.765607e-04    2.334632e+05    3.193767e-09    2.493076e-13    1.065404e-09    1.224660e-10   -8.700000e-01    1.135011e+00    3.195646e-02
    2.740812e+01    7.690538e+02    1.348269e-04    1.877189e+05    3.133054e-09    2.262457e-13    9.748000e-10    1.126748e-10   -8.600000e-01    1.135011e+00    3.192367e-02
    2.831985e+01    7.949842e+02    1.020411e-04    1.494295e+05    3.077868e-09    2.052838e-13    8.909070e-10    1.035470e-10   -8.500000e-01    1.135011e+00    3.189787e-02
    2.924964e+01    8.217205e+02    7.651865e-05    1.176411e+05    3.027952e-09    1.862397e-13    8.134100e-10    9.505775e-11   -8.400000e-01    1.135011e+00    3.187775e-02
    3.017459e+01    8.487315e+02    5.684900e-05    9.152196e+04    2.983040e-09    1.689452e-13    7.419780e-10    8.718005e-11   -8.300000e-01    1.135011e+00    3.186224e-02
    3.106934e+01    8.754735e+02    4.185215e-05    7.032349e+04    2.942859e-09    1.532456e-13    6.762685e-10    7.988475e-11   -8.200000e-01    1.135011e+00    3.185039e-02
    3.190681e+01    9.014309e+02    3.054506e-05    5.335558e+04    2.907132e-09    1.389984e-13    6.159355e-10    7.314160e-11   -8.100000e-01    1.135011e+00    3.184146e-02
    3.265818e+01    9.261492e+02    2.211584e-05    3.997512e+04    2.875582e-09    1.260732e-13    5.606335e-10    6.691965e-11   -8.000000e-01    1.135011e+00    3.183480e-02
    3.329233e+01    9.492675e+02    1.590176e-05    2.958546e+04    2.847942e-09    1.143500e-13    5.100235e-10    6.118785e-11   -7.900000e-01    1.135011e+00    3.182988e-02
    3.377406e+01    9.705292e+02    1.136973e-05    2.164195e+04    2.823949e-09    1.037194e-13    4.637736e-10    5.591535e-11   -7.800000e-01    1.135011e+00    3.182630e-02
    3.406144e+01    9.897824e+02    8.097820e-06    1.565935e+04    2.803351e-09    9.408100e-14    4.215641e-10    5.107185e-11   -7.700000e-01    1.135011e+00    3.182371e-02
    3.410259e+01    1.006975e+03    5.757740e-06    1.121742e+04    2.785907e-09    8.534340e-14    3.830886e-10    4.662794e-11   -7.600000e-01    1.135011e+00    3.182186e-02
    3.383264e+01    1.022139e+03    4.098327e-06    7.962788e+03    2.771389e-09    7.742310e-14    3.480551e-10    4.255521e-11   -7.500000e-01    1.135011e+00    3.182054e-02
    3.317279e+01    1.035367e+03    2.930552e-06    5.606717e+03    2.759580e-09    7.024400e-14    3.161873e-10    3.882645e-11   -7.400000e-01    1.135011e+00    3.181962e-02
    3.203502e+01    1.046795e+03    2.114284e-06    3.919510e+03    2.750279e-09    6.373690e-14    2.872250e-10    3.541574e-11   -7.300000e-01    1.135011e+00    3.181897e-02
    3.033639e+01    1.056588e+03    1.547071e-06    2.722835e+03    2.743298e-09    5.783865e-14    2.609239e-10    3.229848e-11   -7.200000e-01    1.135011e+00    3.181852e-02
