# sky130 pfet_01v8 gm/ID Processed Lookup Table
# Corner: tt
# Temperature: 85C
# W = 2.0 um
# L = 2.5 um (2500 nm)
# Columns: gm/id [1/V]  gm/gds [V/V]  id/W [A/m]  ft [Hz]  Cgg/W [F/m]  Cgd/W [F/m]  Cgs/W [F/m]  Cdb/W [F/m]  vgs [V]  vth [V]  vdsat [V]
# vdsat = BSIM4 saturation voltage (|VDS|_sat, positive); use for headroom / saturation / cascode-bias calculations
#           gm/id          gm/gds            id/W              ft           Cgg/W           Cgd/W           Cgs/W           Cdb/W             vgs             vth           vdsat
    1.690836e+00    2.730222e+00    7.646195e+00    1.305292e+08    1.576375e-08    2.003986e-09    1.387020e-08    1.606999e-09   -1.800000e+00    9.261178e-01    7.515999e-01
    1.723689e+00    2.862464e+00    7.516910e+00    1.313538e+08    1.569914e-08    1.911288e-09    1.388373e-08    1.597948e-09   -1.790000e+00    9.261178e-01    7.434662e-01
    1.757602e+00    3.006298e+00    7.387060e+00    1.321647e+08    1.563495e-08    1.820088e-09    1.395421e-08    1.651295e-09   -1.780000e+00    9.261178e-01    7.353368e-01
    1.792502e+00    3.163136e+00    7.257100e+00    1.329587e+08    1.557134e-08    1.730593e-09    1.396220e-08    1.638932e-09   -1.770000e+00    9.261178e-01    7.272116e-01
    1.828449e+00    3.334592e+00    7.126900e+00    1.337322e+08    1.550842e-08    1.643008e-09    1.396904e-08    1.626726e-09   -1.760000e+00    9.261178e-01    7.190905e-01
    1.865464e+00    3.522517e+00    6.996485e+00    1.344813e+08    1.544632e-08    1.557522e-09    1.397469e-08    1.614700e-09   -1.750000e+00    9.261178e-01    7.109735e-01
    1.903567e+00    3.729025e+00    6.865875e+00    1.352016e+08    1.538517e-08    1.474314e-09    1.397910e-08    1.602873e-09   -1.740000e+00    9.261178e-01    7.028604e-01
    1.942771e+00    3.956544e+00    6.735100e+00    1.358888e+08    1.532506e-08    1.393546e-09    1.398225e-08    1.591264e-09   -1.730000e+00    9.261178e-01    6.947513e-01
    1.983086e+00    4.207853e+00    6.604190e+00    1.365379e+08    1.526610e-08    1.315362e-09    1.398410e-08    1.579894e-09   -1.720000e+00    9.261178e-01    6.866459e-01
    2.024514e+00    4.486123e+00    6.473180e+00    1.371436e+08    1.520838e-08    1.239888e-09    1.398464e-08    1.568777e-09   -1.710000e+00    9.261178e-01    6.785444e-01
    2.067054e+00    4.794974e+00    6.342105e+00    1.377006e+08    1.515199e-08    1.167229e-09    1.398384e-08    1.557930e-09   -1.700000e+00    9.261178e-01    6.704465e-01
    2.110695e+00    5.138522e+00    6.211005e+00    1.382031e+08    1.509697e-08    1.097465e-09    1.398171e-08    1.547364e-09   -1.690000e+00    9.261178e-01    6.623523e-01
    2.155418e+00    5.521424e+00    6.079930e+00    1.386452e+08    1.504338e-08    1.030659e-09    1.397824e-08    1.537092e-09   -1.680000e+00    9.261178e-01    6.542616e-01
    2.201199e+00    5.948931e+00    5.948925e+00    1.390209e+08    1.499125e-08    9.668470e-10    1.397343e-08    1.527120e-09   -1.670000e+00    9.261178e-01    6.461745e-01
    2.248000e+00    6.426919e+00    5.818055e+00    1.393241e+08    1.494060e-08    9.060470e-10    1.396729e-08    1.517458e-09   -1.660000e+00    9.261178e-01    6.380907e-01
    2.295787e+00    6.961931e+00    5.687370e+00    1.395489e+08    1.489144e-08    8.482540e-10    1.395983e-08    1.508106e-09   -1.650000e+00    9.261178e-01    6.300103e-01
    2.344517e+00    7.561176e+00    5.556935e+00    1.396899e+08    1.484376e-08    7.934450e-10    1.395108e-08    1.499068e-09   -1.640000e+00    9.261178e-01    6.219333e-01
    2.394142e+00    8.232537e+00    5.426825e+00    1.397419e+08    1.479753e-08    7.415780e-10    1.394104e-08    1.490343e-09   -1.630000e+00    9.261178e-01    6.138594e-01
    2.444618e+00    8.984535e+00    5.297110e+00    1.397005e+08    1.475272e-08    6.925960e-10    1.392973e-08    1.481927e-09   -1.620000e+00    9.261178e-01    6.057888e-01
    2.495906e+00    9.826291e+00    5.167860e+00    1.395620e+08    1.470929e-08    6.464280e-10    1.391718e-08    1.473817e-09   -1.610000e+00    9.261178e-01    5.977213e-01
    2.547969e+00    1.076745e+01    5.039165e+00    1.393239e+08    1.466719e-08    6.029910e-10    1.390342e-08    1.466004e-09   -1.600000e+00    9.261178e-01    5.896568e-01
    2.600783e+00    1.181806e+01    4.911097e+00    1.389846e+08    1.462635e-08    5.621910e-10    1.388845e-08    1.458482e-09   -1.590000e+00    9.261178e-01    5.815954e-01
    2.654336e+00    1.298849e+01    4.783738e+00    1.385437e+08    1.458669e-08    5.239275e-10    1.387230e-08    1.451240e-09   -1.580000e+00    9.261178e-01    5.735369e-01
    2.708631e+00    1.428930e+01    4.657171e+00    1.380017e+08    1.454815e-08    4.880941e-10    1.385498e-08    1.444268e-09   -1.570000e+00    9.261178e-01    5.654814e-01
    2.763685e+00    1.573110e+01    4.531473e+00    1.373605e+08    1.451063e-08    4.545791e-10    1.383653e-08    1.437554e-09   -1.560000e+00    9.261178e-01    5.574287e-01
    2.819533e+00    1.732440e+01    4.406725e+00    1.366227e+08    1.447406e-08    4.232691e-10    1.381693e-08    1.431084e-09   -1.550000e+00    9.261178e-01    5.493789e-01
    2.876223e+00    1.907957e+01    4.283000e+00    1.357919e+08    1.443834e-08    3.940494e-10    1.379621e-08    1.424845e-09   -1.540000e+00    9.261178e-01    5.413319e-01
    2.933822e+00    2.100665e+01    4.160371e+00    1.348720e+08    1.440337e-08    3.668058e-10    1.377437e-08    1.418822e-09   -1.530000e+00    9.261178e-01    5.332877e-01
    2.992409e+00    2.311540e+01    4.038907e+00    1.338677e+08    1.436909e-08    3.414252e-10    1.375142e-08    1.413002e-09   -1.520000e+00    9.261178e-01    5.252462e-01
    3.052073e+00    2.541516e+01    3.918671e+00    1.327838e+08    1.433537e-08    3.177968e-10    1.372734e-08    1.407369e-09   -1.510000e+00    9.261178e-01    5.172074e-01
    3.112918e+00    2.791487e+01    3.799725e+00    1.316253e+08    1.430212e-08    2.958129e-10    1.370215e-08    1.401909e-09   -1.500000e+00    9.261178e-01    5.091714e-01
    3.175055e+00    3.062315e+01    3.682124e+00    1.303973e+08    1.426926e-08    2.753694e-10    1.367582e-08    1.396606e-09   -1.490000e+00    9.261178e-01    5.011382e-01
    3.238600e+00    3.354820e+01    3.565923e+00    1.291043e+08    1.423668e-08    2.563662e-10    1.364835e-08    1.391445e-09   -1.480000e+00    9.261178e-01    4.931076e-01
    3.303683e+00    3.669807e+01    3.451168e+00    1.277513e+08    1.420428e-08    2.387078e-10    1.361971e-08    1.386410e-09   -1.470000e+00    9.261178e-01    4.850799e-01
    3.370434e+00    4.008052e+01    3.337906e+00    1.263425e+08    1.417199e-08    2.223030e-10    1.358988e-08    1.381488e-09   -1.460000e+00    9.261178e-01    4.770549e-01
    3.438991e+00    4.370329e+01    3.226177e+00    1.248820e+08    1.413969e-08    2.070658e-10    1.355884e-08    1.376663e-09   -1.450000e+00    9.261178e-01    4.690328e-01
    3.509500e+00    4.757412e+01    3.116022e+00    1.233736e+08    1.410729e-08    1.929145e-10    1.352655e-08    1.371919e-09   -1.440000e+00    9.261178e-01    4.610136e-01
    3.582107e+00    5.170080e+01    3.007476e+00    1.218208e+08    1.407471e-08    1.797724e-10    1.349298e-08    1.367243e-09   -1.430000e+00    9.261178e-01    4.529975e-01
    3.656968e+00    5.609136e+01    2.900571e+00    1.202267e+08    1.404184e-08    1.675677e-10    1.345807e-08    1.362620e-09   -1.420000e+00    9.261178e-01    4.449844e-01
    3.734246e+00    6.075425e+01    2.795339e+00    1.185941e+08    1.400860e-08    1.562328e-10    1.342180e-08    1.358036e-09   -1.410000e+00    9.261178e-01    4.369746e-01
    3.814104e+00    6.569812e+01    2.691811e+00    1.169254e+08    1.397489e-08    1.457047e-10    1.338410e-08    1.353476e-09   -1.400000e+00    9.261178e-01    4.289681e-01
    3.896720e+00    7.093238e+01    2.590012e+00    1.152230e+08    1.394061e-08    1.359245e-10    1.334493e-08    1.348926e-09   -1.390000e+00    9.261178e-01    4.209653e-01
    3.982276e+00    7.646688e+01    2.489968e+00    1.134888e+08    1.390568e-08    1.268375e-10    1.330422e-08    1.344372e-09   -1.380000e+00    9.261178e-01    4.129663e-01
    4.070961e+00    8.231222e+01    2.391705e+00    1.117244e+08    1.387000e-08    1.183928e-10    1.326190e-08    1.339801e-09   -1.370000e+00    9.261178e-01    4.049714e-01
    4.162976e+00    8.847981e+01    2.295245e+00    1.099314e+08    1.383348e-08    1.105432e-10    1.321791e-08    1.335197e-09   -1.360000e+00    9.261178e-01    3.969808e-01
    4.258531e+00    9.498185e+01    2.200611e+00    1.081109e+08    1.379602e-08    1.032447e-10    1.317218e-08    1.330547e-09   -1.350000e+00    9.261178e-01    3.889951e-01
    4.357849e+00    1.018315e+02    2.107824e+00    1.062641e+08    1.375753e-08    9.645680e-11    1.312461e-08    1.325837e-09   -1.340000e+00    9.261178e-01    3.810145e-01
    4.461157e+00    1.090429e+02    2.016906e+00    1.043916e+08    1.371790e-08    9.014170e-11    1.307513e-08    1.321053e-09   -1.330000e+00    9.261178e-01    3.730397e-01
    4.568700e+00    1.166311e+02    1.927877e+00    1.024943e+08    1.367705e-08    8.426470e-11    1.302366e-08    1.316181e-09   -1.320000e+00    9.261178e-01    3.650711e-01
    4.680740e+00    1.246126e+02    1.840755e+00    1.005727e+08    1.363486e-08    7.879350e-11    1.297010e-08    1.311206e-09   -1.310000e+00    9.261178e-01    3.571095e-01
    4.797543e+00    1.330045e+02    1.755561e+00    9.862698e+07    1.359125e-08    7.369830e-11    1.291434e-08    1.306115e-09   -1.300000e+00    9.261178e-01    3.491556e-01
    4.919395e+00    1.418256e+02    1.672314e+00    9.665742e+07    1.354610e-08    6.895160e-11    1.285629e-08    1.300892e-09   -1.290000e+00    9.261178e-01    3.412102e-01
    5.046594e+00    1.510952e+02    1.591032e+00    9.466415e+07    1.349932e-08    6.452800e-11    1.279584e-08    1.295521e-09   -1.280000e+00    9.261178e-01    3.332744e-01
    5.179450e+00    1.608343e+02    1.511734e+00    9.264696e+07    1.345079e-08    6.040395e-11    1.273289e-08    1.289990e-09   -1.270000e+00    9.261178e-01    3.253493e-01
    5.318295e+00    1.710648e+02    1.434439e+00    9.060585e+07    1.340042e-08    5.655780e-11    1.266730e-08    1.284283e-09   -1.260000e+00    9.261178e-01    3.174363e-01
    5.463467e+00    1.818094e+02    1.359165e+00    8.854037e+07    1.334809e-08    5.296940e-11    1.259897e-08    1.278383e-09   -1.250000e+00    9.261178e-01    3.095368e-01
    5.615317e+00    1.930920e+02    1.285930e+00    8.645018e+07    1.329370e-08    4.962031e-11    1.252779e-08    1.272275e-09   -1.240000e+00    9.261178e-01    3.016525e-01
    5.774213e+00    2.049370e+02    1.214753e+00    8.433482e+07    1.323713e-08    4.649340e-11    1.245360e-08    1.265943e-09   -1.230000e+00    9.261178e-01    2.937854e-01
    5.940531e+00    2.173696e+02    1.145651e+00    8.219385e+07    1.317827e-08    4.357286e-11    1.237630e-08    1.259372e-09   -1.220000e+00    9.261178e-01    2.859376e-01
    6.114651e+00    2.304151e+02    1.078643e+00    8.002662e+07    1.311702e-08    4.084409e-11    1.229574e-08    1.252544e-09   -1.210000e+00    9.261178e-01    2.781116e-01
    6.296949e+00    2.440984e+02    1.013747e+00    7.783254e+07    1.305324e-08    3.829360e-11    1.221180e-08    1.245444e-09   -1.200000e+00    9.261178e-01    2.703103e-01
    6.487823e+00    2.584443e+02    9.509785e-01    7.561117e+07    1.298685e-08    3.590890e-11    1.212435e-08    1.238054e-09   -1.190000e+00    9.261178e-01    2.625367e-01
    6.687641e+00    2.734763e+02    8.903565e-01    7.336197e+07    1.291773e-08    3.367844e-11    1.203323e-08    1.230359e-09   -1.180000e+00    9.261178e-01    2.547946e-01
    6.896759e+00    2.892153e+02    8.318965e-01    7.108449e+07    1.284575e-08    3.159157e-11    1.193833e-08    1.222340e-09   -1.170000e+00    9.261178e-01    2.470877e-01
    7.115529e+00    3.056806e+02    7.756135e-01    6.877863e+07    1.277083e-08    2.963839e-11    1.183951e-08    1.213982e-09   -1.160000e+00    9.261178e-01    2.394207e-01
    7.344236e+00    3.228868e+02    7.215230e-01    6.644431e+07    1.269285e-08    2.780978e-11    1.173664e-08    1.205267e-09   -1.150000e+00    9.261178e-01    2.317985e-01
    7.583146e+00    3.408436e+02    6.696370e-01    6.408182e+07    1.261172e-08    2.609727e-11    1.162957e-08    1.196179e-09   -1.140000e+00    9.261178e-01    2.242267e-01
    7.832442e+00    3.595545e+02    6.199670e-01    6.169184e+07    1.252732e-08    2.449302e-11    1.151821e-08    1.186702e-09   -1.130000e+00    9.261178e-01    2.167114e-01
    8.092229e+00    3.790146e+02    5.725225e-01    5.927551e+07    1.243957e-08    2.298975e-11    1.140242e-08    1.176819e-09   -1.120000e+00    9.261178e-01    2.092595e-01
    8.362520e+00    3.992089e+02    5.273090e-01    5.683447e+07    1.234840e-08    2.158072e-11    1.128209e-08    1.166515e-09   -1.110000e+00    9.261178e-01    2.018785e-01
    8.643185e+00    4.201112e+02    4.843303e-01    5.437108e+07    1.225371e-08    2.025971e-11    1.115711e-08    1.155775e-09   -1.100000e+00    9.261178e-01    1.945766e-01
    8.933960e+00    4.416807e+02    4.435851e-01    5.188839e+07    1.215544e-08    1.902090e-11    1.102740e-08    1.144586e-09   -1.090000e+00    9.261178e-01    1.873626e-01
    9.234395e+00    4.638603e+02    4.050683e-01    4.939038e+07    1.205354e-08    1.785892e-11    1.089287e-08    1.132932e-09   -1.080000e+00    9.261178e-01    1.802464e-01
    9.543838e+00    4.865752e+02    3.687694e-01    4.688187e+07    1.194794e-08    1.676875e-11    1.075345e-08    1.120803e-09   -1.070000e+00    9.261178e-01    1.732382e-01
    9.861406e+00    5.097297e+02    3.346723e-01    4.436878e+07    1.183863e-08    1.574576e-11    1.060910e-08    1.108189e-09   -1.060000e+00    9.261178e-01    1.663490e-01
    1.018597e+01    5.332073e+02    3.027539e-01    4.185798e+07    1.172557e-08    1.478563e-11    1.045976e-08    1.095078e-09   -1.050000e+00    9.261178e-01    1.595906e-01
    1.051612e+01    5.568685e+02    2.729842e-01    3.935747e+07    1.160877e-08    1.388433e-11    1.030542e-08    1.081463e-09   -1.040000e+00    9.261178e-01    1.529752e-01
    1.085018e+01    5.805518e+02    2.453252e-01    3.687622e+07    1.148823e-08    1.303813e-11    1.014609e-08    1.067337e-09   -1.030000e+00    9.261178e-01    1.465152e-01
    1.118618e+01    6.040739e+02    2.197309e-01    3.442412e+07    1.136398e-08    1.224353e-11    9.981790e-09    1.052698e-09   -1.020000e+00    9.261178e-01    1.402237e-01
    1.152189e+01    6.272329e+02    1.961465e-01    3.201178e+07    1.123607e-08    1.149731e-11    9.812565e-09    1.037543e-09   -1.010000e+00    9.261178e-01    1.341134e-01
    1.185484e+01    6.498125e+02    1.745088e-01    2.965041e+07    1.110458e-08    1.079643e-11    9.638490e-09    1.021871e-09   -1.000000e+00    9.261178e-01    1.281971e-01
    1.218237e+01    6.715867e+02    1.547457e-01    2.735140e+07    1.096960e-08    1.013808e-11    9.459670e-09    1.005688e-09   -9.900000e-01    9.261178e-01    1.224872e-01
    1.250171e+01    6.923286e+02    1.367774e-01    2.512615e+07    1.083124e-08    9.519605e-12    9.276230e-09    9.889965e-10   -9.800000e-01    9.261178e-01    1.169951e-01
    1.281008e+01    7.118182e+02    1.205163e-01    2.298556e+07    1.068963e-08    8.938560e-12    9.088325e-09    9.718070e-10   -9.700000e-01    9.261178e-01    1.117318e-01
    1.310473e+01    7.298520e+02    1.058686e-01    2.093975e+07    1.054495e-08    8.392650e-12    8.896145e-09    9.541295e-10   -9.600000e-01    9.261178e-01    1.067064e-01
    1.338318e+01    7.462544e+02    9.273490e-02    1.899763e+07    1.039736e-08    7.879725e-12    8.699905e-09    9.359800e-10   -9.500000e-01    9.261178e-01    1.019271e-01
    1.364320e+01    7.608864e+02    8.101195e-02    1.716665e+07    1.024708e-08    7.397780e-12    8.499855e-09    9.173745e-10   -9.400000e-01    9.261178e-01    9.739993e-02
    1.388307e+01    7.736552e+02    7.059420e-02    1.545243e+07    1.009434e-08    6.944925e-12    8.296270e-09    8.983345e-10   -9.300000e-01    9.261178e-01    9.312920e-02
    1.410160e+01    7.845196e+02    6.137525e-02    1.385868e+07    9.939395e-09    6.519415e-12    8.089455e-09    8.788840e-10   -9.200000e-01    9.261178e-01    8.911712e-02
    1.429826e+01    7.934963e+02    5.324955e-02    1.238708e+07    9.782515e-09    6.119590e-12    7.879740e-09    8.590495e-10   -9.100000e-01    9.261178e-01    8.536377e-02
    1.447325e+01    8.006597e+02    4.611387e-02    1.103728e+07    9.624000e-09    5.743915e-12    7.667490e-09    8.388605e-10   -9.000000e-01    9.261178e-01    8.186712e-02
    1.462746e+01    8.061378e+02    3.986878e-02    9.807090e+06    9.464155e-09    5.390935e-12    7.453075e-09    8.183505e-10   -8.900000e-01    9.261178e-01    7.862310e-02
    1.476256e+01    8.101107e+02    3.441967e-02    8.692627e+06    9.303310e-09    5.059295e-12    7.236910e-09    7.975540e-10   -8.800000e-01    9.261178e-01    7.562571e-02
    1.488084e+01    8.127988e+02    2.967777e-02    7.688593e+06    9.141805e-09    4.747722e-12    7.019405e-09    7.765085e-10   -8.700000e-01    9.261178e-01    7.286724e-02
    1.498519e+01    8.144550e+02    2.556075e-02    6.788592e+06    8.980000e-09    4.455012e-12    6.801000e-09    7.552550e-10   -8.600000e-01    9.261178e-01    7.033850e-02
    1.507898e+01    8.153545e+02    2.199312e-02    5.985451e+06    8.818245e-09    4.180046e-12    6.582150e-09    7.338340e-10   -8.500000e-01    9.261178e-01    6.802909e-02
    1.516590e+01    8.157814e+02    1.890642e-02    5.271506e+06    8.656910e-09    3.921764e-12    6.363300e-09    7.122895e-10   -8.400000e-01    9.261178e-01    6.592763e-02
    1.524986e+01    8.160211e+02    1.623910e-02    4.638897e+06    8.496365e-09    3.679174e-12    6.144910e-09    6.906650e-10   -8.300000e-01    9.261178e-01    6.402210e-02
    1.533482e+01    8.163489e+02    1.393635e-02    4.079808e+06    8.336970e-09    3.451342e-12    5.927445e-09    6.690065e-10   -8.200000e-01    9.261178e-01    6.230007e-02
    1.542469e+01    8.170245e+02    1.194973e-02    3.586653e+06    8.179095e-09    3.237390e-12    5.711350e-09    6.473590e-10   -8.100000e-01    9.261178e-01    6.074893e-02
    1.552319e+01    8.182853e+02    1.023669e-02    3.152239e+06    8.023085e-09    3.036490e-12    5.497075e-09    6.257680e-10   -8.000000e-01    9.261178e-01    5.935613e-02
    1.563379e+01    8.203411e+02    8.760075e-03    2.769854e+06    7.869285e-09    2.847865e-12    5.285055e-09    6.042785e-10   -7.900000e-01    9.261178e-01    5.810936e-02
    1.575958e+01    8.233740e+02    7.487625e-03    2.433340e+06    7.718025e-09    2.670781e-12    5.075705e-09    5.829345e-10   -7.800000e-01    9.261178e-01    5.699667e-02
    1.590327e+01    8.275344e+02    6.391400e-03    2.137118e+06    7.569620e-09    2.504551e-12    4.869425e-09    5.617795e-10   -7.700000e-01    9.261178e-01    5.600663e-02
    1.606708e+01    8.329413e+02    5.447295e-03    1.876197e+06    7.424365e-09    2.348524e-12    4.666585e-09    5.408540e-10   -7.600000e-01    9.261178e-01    5.512836e-02
    1.625271e+01    8.396809e+02    4.634548e-03    1.646155e+06    7.282535e-09    2.202090e-12    4.467540e-09    5.201990e-10   -7.500000e-01    9.261178e-01    5.435162e-02
    1.646132e+01    8.478076e+02    3.935304e-03    1.443108e+06    7.144375e-09    2.064674e-12    4.272609e-09    4.998504e-10   -7.400000e-01    9.261178e-01    5.366680e-02
    1.669353e+01    8.573435e+02    3.334203e-03    1.263673e+06    7.010120e-09    1.935732e-12    4.082086e-09    4.798441e-10   -7.300000e-01    9.261178e-01    5.306499e-02
    1.694935e+01    8.682815e+02    2.818032e-03    1.104925e+06    6.879970e-09    1.814755e-12    3.896233e-09    4.602120e-10   -7.200000e-01    9.261178e-01    5.253790e-02
