# sky130 pfet_01v8 gm/ID Processed Lookup Table
# Corner: tt
# Temperature: 85C
# W = 2.0 um
# L = 5 um (5000 nm)
# Columns: gm/id [1/V]  gm/gds [V/V]  id/W [A/m]  ft [Hz]  Cgg/W [F/m]  Cgd/W [F/m]  Cgs/W [F/m]  Cdb/W [F/m]  vgs [V]  vth [V]  vdsat [V]
# vdsat = BSIM4 saturation voltage (|VDS|_sat, positive); use for headroom / saturation / cascode-bias calculations
#           gm/id          gm/gds            id/W              ft           Cgg/W           Cgd/W           Cgs/W           Cdb/W             vgs             vth           vdsat
    1.757072e+00    3.080692e+00    3.873694e+00    3.456769e+07    3.133753e-08    4.118594e-09    2.781370e-08    3.128665e-09   -1.800000e+00    9.356345e-01    7.450965e-01
    1.791393e+00    3.246076e+00    3.805630e+00    3.477394e+07    3.120209e-08    3.928231e-09    2.783896e-08    3.109782e-09   -1.790000e+00    9.356345e-01    7.368279e-01
    1.826799e+00    3.427505e+00    3.737350e+00    3.497599e+07    3.106737e-08    3.740706e-09    2.786187e-08    3.090841e-09   -1.780000e+00    9.356345e-01    7.285651e-01
    1.863229e+00    3.627117e+00    3.669031e+00    3.517274e+07    3.093368e-08    3.556470e-09    2.798685e-08    3.181720e-09   -1.770000e+00    9.356345e-01    7.203079e-01
    1.900732e+00    3.847391e+00    3.600629e+00    3.536314e+07    3.080127e-08    3.375959e-09    2.799897e-08    3.156882e-09   -1.760000e+00    9.356345e-01    7.120564e-01
    1.939317e+00    4.091193e+00    3.532159e+00    3.554588e+07    3.067043e-08    3.199593e-09    2.800869e-08    3.132386e-09   -1.750000e+00    9.356345e-01    7.038105e-01
    1.978995e+00    4.361860e+00    3.463634e+00    3.571967e+07    3.054143e-08    3.027761e-09    2.801592e-08    3.108277e-09   -1.740000e+00    9.356345e-01    6.955702e-01
    2.019767e+00    4.663256e+00    3.395074e+00    3.588309e+07    3.041452e-08    2.860828e-09    2.802059e-08    3.084596e-09   -1.730000e+00    9.356345e-01    6.873355e-01
    2.061629e+00    4.999861e+00    3.326496e+00    3.603459e+07    3.028991e-08    2.699119e-09    2.802264e-08    3.061387e-09   -1.720000e+00    9.356345e-01    6.791063e-01
    2.104567e+00    5.376872e+00    3.257922e+00    3.617258e+07    3.016783e-08    2.542918e-09    2.802201e-08    3.038686e-09   -1.710000e+00    9.356345e-01    6.708827e-01
    2.148560e+00    5.800291e+00    3.189374e+00    3.629536e+07    3.004844e-08    2.392466e-09    2.801868e-08    3.016527e-09   -1.700000e+00    9.356345e-01    6.626647e-01
    2.193579e+00    6.277047e+00    3.120880e+00    3.640125e+07    2.993188e-08    2.247961e-09    2.801263e-08    2.994940e-09   -1.690000e+00    9.356345e-01    6.544521e-01
    2.239588e+00    6.815107e+00    3.052466e+00    3.648853e+07    2.981828e-08    2.109548e-09    2.800384e-08    2.973949e-09   -1.680000e+00    9.356345e-01    6.462450e-01
    2.286539e+00    7.423576e+00    2.984165e+00    3.655545e+07    2.970773e-08    1.977326e-09    2.799232e-08    2.953577e-09   -1.670000e+00    9.356345e-01    6.380433e-01
    2.334387e+00    8.112840e+00    2.916009e+00    3.660044e+07    2.960026e-08    1.851349e-09    2.797808e-08    2.933835e-09   -1.660000e+00    9.356345e-01    6.298471e-01
    2.383076e+00    8.894627e+00    2.848036e+00    3.662196e+07    2.949591e-08    1.731623e-09    2.796114e-08    2.914736e-09   -1.650000e+00    9.356345e-01    6.216562e-01
    2.432551e+00    9.782110e+00    2.780280e+00    3.661864e+07    2.939467e-08    1.618110e-09    2.794153e-08    2.896283e-09   -1.640000e+00    9.356345e-01    6.134708e-01
    2.482764e+00    1.078999e+01    2.712786e+00    3.658942e+07    2.929648e-08    1.510737e-09    2.791929e-08    2.878477e-09   -1.630000e+00    9.356345e-01    6.052908e-01
    2.533669e+00    1.193448e+01    2.645590e+00    3.653344e+07    2.920129e-08    1.409389e-09    2.789445e-08    2.861313e-09   -1.620000e+00    9.356345e-01    5.971161e-01
    2.585227e+00    1.323330e+01    2.578739e+00    3.645010e+07    2.910901e-08    1.313927e-09    2.786705e-08    2.844782e-09   -1.610000e+00    9.356345e-01    5.889469e-01
    2.637421e+00    1.470568e+01    2.512272e+00    3.633927e+07    2.901951e-08    1.224178e-09    2.783713e-08    2.828869e-09   -1.600000e+00    9.356345e-01    5.807829e-01
    2.690241e+00    1.637219e+01    2.446235e+00    3.620101e+07    2.893268e-08    1.139951e-09    2.780474e-08    2.813558e-09   -1.590000e+00    9.356345e-01    5.726243e-01
    2.743697e+00    1.825469e+01    2.380667e+00    3.603579e+07    2.884835e-08    1.061034e-09    2.776990e-08    2.798829e-09   -1.580000e+00    9.356345e-01    5.644711e-01
    2.797817e+00    2.037611e+01    2.315611e+00    3.584430e+07    2.876636e-08    9.872045e-10    2.773265e-08    2.784661e-09   -1.570000e+00    9.356345e-01    5.563232e-01
    2.852646e+00    2.276032e+01    2.251106e+00    3.562756e+07    2.868653e-08    9.182285e-10    2.769302e-08    2.771025e-09   -1.560000e+00    9.356345e-01    5.481807e-01
    2.908246e+00    2.543187e+01    2.187191e+00    3.538671e+07    2.860868e-08    8.538650e-10    2.765103e-08    2.757896e-09   -1.550000e+00    9.356345e-01    5.400435e-01
    2.964694e+00    2.841583e+01    2.123900e+00    3.512309e+07    2.853260e-08    7.938725e-10    2.760669e-08    2.745245e-09   -1.540000e+00    9.356345e-01    5.319118e-01
    3.022082e+00    3.173763e+01    2.061268e+00    3.483811e+07    2.845812e-08    7.380080e-10    2.756002e-08    2.733042e-09   -1.530000e+00    9.356345e-01    5.237854e-01
    3.080514e+00    3.542281e+01    1.999324e+00    3.453325e+07    2.838501e-08    6.860325e-10    2.751102e-08    2.721256e-09   -1.520000e+00    9.356345e-01    5.156645e-01
    3.140097e+00    3.949689e+01    1.938098e+00    3.420991e+07    2.831307e-08    6.377105e-10    2.745968e-08    2.709857e-09   -1.510000e+00    9.356345e-01    5.075490e-01
    3.200953e+00    4.398530e+01    1.877616e+00    3.386953e+07    2.824210e-08    5.928135e-10    2.740597e-08    2.698811e-09   -1.500000e+00    9.356345e-01    4.994391e-01
    3.263211e+00    4.891330e+01    1.817902e+00    3.351352e+07    2.817189e-08    5.511210e-10    2.734988e-08    2.688087e-09   -1.490000e+00    9.356345e-01    4.913347e-01
    3.326998e+00    5.430572e+01    1.758979e+00    3.314306e+07    2.810222e-08    5.124210e-10    2.729138e-08    2.677653e-09   -1.480000e+00    9.356345e-01    4.832360e-01
    3.392456e+00    6.018737e+01    1.700867e+00    3.275944e+07    2.803290e-08    4.765109e-10    2.723041e-08    2.667477e-09   -1.470000e+00    9.356345e-01    4.751429e-01
    3.459726e+00    6.658258e+01    1.643583e+00    3.236372e+07    2.796372e-08    4.431982e-10    2.716693e-08    2.657528e-09   -1.460000e+00    9.356345e-01    4.670557e-01
    3.528950e+00    7.351550e+01    1.587145e+00    3.195685e+07    2.789448e-08    4.123007e-10    2.710087e-08    2.647776e-09   -1.450000e+00    9.356345e-01    4.589745e-01
    3.600280e+00    8.101012e+01    1.531569e+00    3.153975e+07    2.782496e-08    3.836467e-10    2.703215e-08    2.638187e-09   -1.440000e+00    9.356345e-01    4.508993e-01
    3.673873e+00    8.909042e+01    1.476868e+00    3.111323e+07    2.775498e-08    3.570743e-10    2.696071e-08    2.628734e-09   -1.430000e+00    9.356345e-01    4.428303e-01
    3.749883e+00    9.778019e+01    1.423056e+00    3.067793e+07    2.768432e-08    3.324322e-10    2.688644e-08    2.619384e-09   -1.420000e+00    9.356345e-01    4.347677e-01
    3.828483e+00    1.071036e+02    1.370146e+00    3.023453e+07    2.761280e-08    3.095786e-10    2.680926e-08    2.610108e-09   -1.410000e+00    9.356345e-01    4.267117e-01
    3.909844e+00    1.170852e+02    1.318149e+00    2.978357e+07    2.754020e-08    2.883814e-10    2.672904e-08    2.600877e-09   -1.400000e+00    9.356345e-01    4.186626e-01
    3.994142e+00    1.277495e+02    1.267075e+00    2.932546e+07    2.746635e-08    2.687174e-10    2.664566e-08    2.591662e-09   -1.390000e+00    9.356345e-01    4.106205e-01
    4.081570e+00    1.391218e+02    1.216934e+00    2.886065e+07    2.739102e-08    2.504722e-10    2.655900e-08    2.582434e-09   -1.380000e+00    9.356345e-01    4.025859e-01
    4.172320e+00    1.512281e+02    1.167737e+00    2.838946e+07    2.731403e-08    2.335395e-10    2.646893e-08    2.573163e-09   -1.370000e+00    9.356345e-01    3.945592e-01
    4.266598e+00    1.640952e+02    1.119494e+00    2.791216e+07    2.723518e-08    2.178210e-10    2.637528e-08    2.563821e-09   -1.360000e+00    9.356345e-01    3.865406e-01
    4.364624e+00    1.777506e+02    1.072212e+00    2.742898e+07    2.715426e-08    2.032253e-10    2.627790e-08    2.554380e-09   -1.350000e+00    9.356345e-01    3.785307e-01
    4.466623e+00    1.922229e+02    1.025900e+00    2.694010e+07    2.707108e-08    1.896682e-10    2.617663e-08    2.544812e-09   -1.340000e+00    9.356345e-01    3.705301e-01
    4.572832e+00    2.075418e+02    9.805685e-01    2.644564e+07    2.698542e-08    1.770715e-10    2.607129e-08    2.535087e-09   -1.330000e+00    9.356345e-01    3.625393e-01
    4.683504e+00    2.237381e+02    9.362240e-01    2.594571e+07    2.689709e-08    1.653632e-10    2.596170e-08    2.525177e-09   -1.320000e+00    9.356345e-01    3.545591e-01
    4.798904e+00    2.408436e+02    8.928750e-01    2.544034e+07    2.680588e-08    1.544768e-10    2.584766e-08    2.515053e-09   -1.310000e+00    9.356345e-01    3.465904e-01
    4.919306e+00    2.588915e+02    8.505300e-01    2.492954e+07    2.671157e-08    1.443509e-10    2.572896e-08    2.504686e-09   -1.300000e+00    9.356345e-01    3.386339e-01
    5.045001e+00    2.779156e+02    8.091975e-01    2.441330e+07    2.661395e-08    1.349288e-10    2.560541e-08    2.494046e-09   -1.290000e+00    9.356345e-01    3.306909e-01
    5.176294e+00    2.979509e+02    7.688850e-01    2.389156e+07    2.651282e-08    1.261582e-10    2.547677e-08    2.483106e-09   -1.280000e+00    9.356345e-01    3.227624e-01
    5.313504e+00    3.190331e+02    7.296005e-01    2.336424e+07    2.640795e-08    1.179909e-10    2.534282e-08    2.471834e-09   -1.270000e+00    9.356345e-01    3.148498e-01
    5.456957e+00    3.411984e+02    6.913530e-01    2.283122e+07    2.629912e-08    1.103825e-10    2.520333e-08    2.460200e-09   -1.260000e+00    9.356345e-01    3.069547e-01
    5.607000e+00    3.644827e+02    6.541495e-01    2.229238e+07    2.618613e-08    1.032919e-10    2.505805e-08    2.448173e-09   -1.250000e+00    9.356345e-01    2.990789e-01
    5.763977e+00    3.889218e+02    6.179995e-01    2.174756e+07    2.606873e-08    9.668125e-11    2.490675e-08    2.435723e-09   -1.240000e+00    9.356345e-01    2.912242e-01
    5.928263e+00    4.145505e+02    5.829095e-01    2.119661e+07    2.594672e-08    9.051575e-11    2.474916e-08    2.422819e-09   -1.230000e+00    9.356345e-01    2.833930e-01
    6.100212e+00    4.414012e+02    5.488890e-01    2.063934e+07    2.581986e-08    8.476320e-11    2.458503e-08    2.409429e-09   -1.220000e+00    9.356345e-01    2.755877e-01
    6.280195e+00    4.695035e+02    5.159455e-01    2.007558e+07    2.568793e-08    7.939385e-11    2.441410e-08    2.395522e-09   -1.210000e+00    9.356345e-01    2.678111e-01
    6.468581e+00    4.988833e+02    4.840870e-01    1.950515e+07    2.555072e-08    7.438035e-11    2.423611e-08    2.381065e-09   -1.200000e+00    9.356345e-01    2.600665e-01
    6.665726e+00    5.295603e+02    4.533210e-01    1.892792e+07    2.540800e-08    6.969740e-11    2.405080e-08    2.366027e-09   -1.190000e+00    9.356345e-01    2.523574e-01
    6.871972e+00    5.615481e+02    4.236551e-01    1.834375e+07    2.525956e-08    6.532165e-11    2.385790e-08    2.350374e-09   -1.180000e+00    9.356345e-01    2.446878e-01
    7.087636e+00    5.948496e+02    3.950963e-01    1.775256e+07    2.510519e-08    6.123145e-11    2.365716e-08    2.334077e-09   -1.170000e+00    9.356345e-01    2.370620e-01
    7.312998e+00    6.294568e+02    3.676512e-01    1.715433e+07    2.494468e-08    5.740690e-11    2.344831e-08    2.317101e-09   -1.160000e+00    9.356345e-01    2.294852e-01
    7.548292e+00    6.653473e+02    3.413255e-01    1.654910e+07    2.477783e-08    5.382955e-11    2.323112e-08    2.299417e-09   -1.150000e+00    9.356345e-01    2.219627e-01
    7.793684e+00    7.024815e+02    3.161242e-01    1.593701e+07    2.460446e-08    5.048240e-11    2.300536e-08    2.280994e-09   -1.140000e+00    9.356345e-01    2.145006e-01
    8.049263e+00    7.407995e+02    2.920512e-01    1.531833e+07    2.442439e-08    4.734958e-11    2.277079e-08    2.261801e-09   -1.130000e+00    9.356345e-01    2.071057e-01
    8.315016e+00    7.802173e+02    2.691089e-01    1.469347e+07    2.423745e-08    4.441657e-11    2.252718e-08    2.241809e-09   -1.120000e+00    9.356345e-01    1.997853e-01
    8.590805e+00    8.206237e+02    2.472983e-01    1.406298e+07    2.404351e-08    4.166981e-11    2.227438e-08    2.220990e-09   -1.110000e+00    9.356345e-01    1.925473e-01
    8.876349e+00    8.618769e+02    2.266183e-01    1.342763e+07    2.384242e-08    3.909679e-11    2.201217e-08    2.199318e-09   -1.100000e+00    9.356345e-01    1.854004e-01
    9.171194e+00    9.038011e+02    2.070659e-01    1.278838e+07    2.363410e-08    3.668589e-11    2.174043e-08    2.176768e-09   -1.090000e+00    9.356345e-01    1.783540e-01
    9.474687e+00    9.461834e+02    1.886352e-01    1.214646e+07    2.341844e-08    3.442634e-11    2.145902e-08    2.153318e-09   -1.080000e+00    9.356345e-01    1.714182e-01
    9.785961e+00    9.887726e+02    1.713173e-01    1.150332e+07    2.319538e-08    3.230816e-11    2.116785e-08    2.128948e-09   -1.070000e+00    9.356345e-01    1.646035e-01
    1.010390e+01    1.031279e+03    1.551005e-01    1.086069e+07    2.296491e-08    3.032207e-11    2.086687e-08    2.103640e-09   -1.060000e+00    9.356345e-01    1.579212e-01
    1.042713e+01    1.073374e+03    1.399691e-01    1.022056e+07    2.272702e-08    2.845945e-11    2.055604e-08    2.077379e-09   -1.050000e+00    9.356345e-01    1.513830e-01
    1.075401e+01    1.114696e+03    1.259039e-01    9.585166e+06    2.248175e-08    2.671231e-11    2.023538e-08    2.050156e-09   -1.040000e+00    9.356345e-01    1.450008e-01
    1.108264e+01    1.154853e+03    1.128812e-01    8.956989e+06    2.222915e-08    2.507320e-11    1.990498e-08    2.021961e-09   -1.030000e+00    9.356345e-01    1.387870e-01
    1.141085e+01    1.193432e+03    1.008735e-01    8.338692e+06    2.196936e-08    2.353519e-11    1.956491e-08    1.992795e-09   -1.020000e+00    9.356345e-01    1.327538e-01
    1.173626e+01    1.230013e+03    8.984880e-02    7.733077e+06    2.170251e-08    2.209185e-11    1.921535e-08    1.962656e-09   -1.010000e+00    9.356345e-01    1.269133e-01
    1.205631e+01    1.264178e+03    7.977095e-02    7.143018e+06    2.142879e-08    2.073716e-11    1.885651e-08    1.931551e-09   -1.000000e+00    9.356345e-01    1.212770e-01
    1.236832e+01    1.295532e+03    7.059990e-02    6.571376e+06    2.114845e-08    1.946553e-11    1.848866e-08    1.899492e-09   -9.900000e-01    9.356345e-01    1.158561e-01
    1.266958e+01    1.323718e+03    6.229175e-02    6.020906e+06    2.086177e-08    1.827176e-11    1.811211e-08    1.866495e-09   -9.800000e-01    9.356345e-01    1.106605e-01
    1.295749e+01    1.348437e+03    5.479950e-02    5.494180e+06    2.056908e-08    1.715098e-11    1.772725e-08    1.832583e-09   -9.700000e-01    9.356345e-01    1.056991e-01
    1.322956e+01    1.369461e+03    4.807355e-02    4.993468e+06    2.027073e-08    1.609864e-11    1.733452e-08    1.797783e-09   -9.600000e-01    9.356345e-01    1.009793e-01
    1.348369e+01    1.386654e+03    4.206223e-02    4.520687e+06    1.996718e-08    1.511050e-11    1.693440e-08    1.762129e-09   -9.500000e-01    9.356345e-01    9.650690e-02
    1.371815e+01    1.399981e+03    3.671274e-02    4.077314e+06    1.965887e-08    1.418261e-11    1.652746e-08    1.725660e-09   -9.400000e-01    9.356345e-01    9.228575e-02
    1.393174e+01    1.409509e+03    3.197188e-02    3.664339e+06    1.934631e-08    1.331127e-11    1.611431e-08    1.688421e-09   -9.300000e-01    9.356345e-01    8.831784e-02
    1.412388e+01    1.415412e+03    2.778679e-02    3.282258e+06    1.903005e-08    1.249299e-11    1.569560e-08    1.650463e-09   -9.200000e-01    9.356345e-01    8.460316e-02
    1.429467e+01    1.417967e+03    2.410575e-02    2.931064e+06    1.871068e-08    1.172456e-11    1.527205e-08    1.611843e-09   -9.100000e-01    9.356345e-01    8.113965e-02
    1.444488e+01    1.417538e+03    2.087884e-02    2.610277e+06    1.838882e-08    1.100292e-11    1.484440e-08    1.572622e-09   -9.000000e-01    9.356345e-01    7.792332e-02
    1.457600e+01    1.414562e+03    1.805850e-02    2.318993e+06    1.806512e-08    1.032523e-11    1.441346e-08    1.532867e-09   -8.900000e-01    9.356345e-01    7.494838e-02
    1.469016e+01    1.409532e+03    1.560003e-02    2.055947e+06    1.774026e-08    9.688835e-12    1.398005e-08    1.492649e-09   -8.800000e-01    9.356345e-01    7.220739e-02
    1.479002e+01    1.402974e+03    1.346186e-02    1.819584e+06    1.741493e-08    9.091230e-12    1.354504e-08    1.452043e-09   -8.700000e-01    9.356345e-01    6.969148e-02
    1.487873e+01    1.395428e+03    1.160585e-02    1.608142e+06    1.708986e-08    8.530070e-12    1.310930e-08    1.411126e-09   -8.600000e-01    9.356345e-01    6.739063e-02
    1.495979e+01    1.387430e+03    9.997270e-03    1.419723e+06    1.676577e-08    8.003155e-12    1.267372e-08    1.369981e-09   -8.500000e-01    9.356345e-01    6.529389e-02
    1.503691e+01    1.379492e+03    8.604855e-03    1.252366e+06    1.644338e-08    7.508425e-12    1.223922e-08    1.328691e-09   -8.400000e-01    9.356345e-01    6.338966e-02
    1.511388e+01    1.372096e+03    7.400695e-03    1.104109e+06    1.612340e-08    7.043935e-12    1.180668e-08    1.287341e-09   -8.300000e-01    9.356345e-01    6.166592e-02
    1.519444e+01    1.365676e+03    6.360055e-03    9.730350e+05    1.580656e-08    6.607860e-12    1.137699e-08    1.246014e-09   -8.200000e-01    9.356345e-01    6.011049e-02
    1.528224e+01    1.360620e+03    5.461160e-03    8.573163e+05    1.549355e-08    6.198500e-12    1.095103e-08    1.204798e-09   -8.100000e-01    9.356345e-01    5.871122e-02
    1.538068e+01    1.357260e+03    4.684957e-03    7.552399e+05    1.518505e-08    5.814230e-12    1.052964e-08    1.163777e-09   -8.000000e-01    9.356345e-01    5.745616e-02
    1.549280e+01    1.355872e+03    4.014857e-03    6.652237e+05    1.488170e-08    5.453555e-12    1.011363e-08    1.123032e-09   -7.900000e-01    9.356345e-01    5.633371e-02
    1.562137e+01    1.356683e+03    3.436473e-03    5.858301e+05    1.458413e-08    5.115035e-12    9.703795e-09    1.082647e-09   -7.800000e-01    9.356345e-01    5.533272e-02
    1.576865e+01    1.359862e+03    2.937362e-03    5.157650e+05    1.429290e-08    4.797347e-12    9.300855e-09    1.042697e-09   -7.700000e-01    9.356345e-01    5.444260e-02
    1.593650e+01    1.365530e+03    2.506793e-03    4.538765e+05    1.400857e-08    4.499225e-12    8.905495e-09    1.003258e-09   -7.600000e-01    9.356345e-01    5.365333e-02
    1.612625e+01    1.373757e+03    2.135518e-03    3.991490e+05    1.373161e-08    4.219486e-12    8.518340e-09    9.644000e-10   -7.500000e-01    9.356345e-01    5.295556e-02
    1.633875e+01    1.384566e+03    1.815577e-03    3.506936e+05    1.346250e-08    3.957019e-12    8.139970e-09    9.261885e-10   -7.400000e-01    9.356345e-01    5.234053e-02
    1.657428e+01    1.397933e+03    1.540115e-03    3.077381e+05    1.320160e-08    3.710774e-12    7.770890e-09    8.886845e-10   -7.300000e-01    9.356345e-01    5.180013e-02
    1.683260e+01    1.413791e+03    1.303224e-03    2.696152e+05    1.294930e-08    3.479767e-12    7.411550e-09    8.519435e-10   -7.200000e-01    9.356345e-01    5.132688e-02
