# sky130 pfet_01v8 gm/ID Processed Lookup Table
# Corner: fs
# Temperature: 25C
# W = 2.0 um
# L = 0.18 um (180 nm)
# Columns: gm/id [1/V]  gm/gds [V/V]  id/W [A/m]  ft [Hz]  Cgg/W [F/m]  Cgd/W [F/m]  Cgs/W [F/m]  Cdb/W [F/m]  vgs [V]  vth [V]  vdsat [V]
# vdsat = BSIM4 saturation voltage (|VDS|_sat, positive); use for headroom / saturation / cascode-bias calculations
#           gm/id          gm/gds            id/W              ft           Cgg/W           Cgd/W           Cgs/W           Cdb/W             vgs             vth           vdsat
    1.056053e+00    1.196316e+00    1.365765e+02    2.090496e+10    1.098076e-09    1.911152e-11    8.500405e-10    7.049935e-11   -1.800000e+00    7.336898e-01    6.799846e-01
    1.076693e+00    1.231047e+00    1.351342e+02    2.111933e+10    1.096470e-09    1.629229e-11    8.508585e-10    7.025640e-11   -1.790000e+00    7.336898e-01    6.751493e-01
    1.097863e+00    1.267076e+00    1.336666e+02    2.133119e+10    1.094904e-09    1.357157e-11    8.516175e-10    7.001885e-11   -1.780000e+00    7.336898e-01    6.703156e-01
    1.119420e+00    1.304458e+00    1.321929e+02    2.154033e+10    1.093375e-09    1.094909e-11    8.523190e-10    6.978670e-11   -1.770000e+00    7.336898e-01    6.654829e-01
    1.141426e+00    1.343253e+00    1.307071e+02    2.174655e+10    1.091885e-09    8.424295e-12    8.529625e-10    6.956005e-11   -1.760000e+00    7.336898e-01    6.606508e-01
    1.163890e+00    1.383517e+00    1.292091e+02    2.194962e+10    1.090432e-09    5.996350e-12    8.535495e-10    6.933895e-11   -1.750000e+00    7.336898e-01    6.558188e-01
    1.186822e+00    1.425311e+00    1.276994e+02    2.214930e+10    1.089018e-09    3.664118e-12    8.540805e-10    6.912335e-11   -1.740000e+00    7.336898e-01    6.509863e-01
    1.210232e+00    1.468696e+00    1.261781e+02    2.234536e+10    1.087640e-09    1.426216e-12    8.545565e-10    6.891325e-11   -1.730000e+00    7.336898e-01    6.461529e-01
    1.234130e+00    1.513732e+00    1.246454e+02    2.253760e+10    1.086300e-09    7.189630e-13    8.549780e-10    6.870865e-11   -1.720000e+00    7.336898e-01    6.413180e-01
    1.258526e+00    1.560481e+00    1.231016e+02    2.272573e+10    1.084996e-09    2.773236e-12    8.553475e-10    6.850960e-11   -1.710000e+00    7.336898e-01    6.364811e-01
    1.283429e+00    1.609002e+00    1.215470e+02    2.290952e+10    1.083727e-09    4.738598e-12    8.556645e-10    6.831595e-11   -1.700000e+00    7.336898e-01    6.316417e-01
    1.308849e+00    1.659356e+00    1.199818e+02    2.308874e+10    1.082492e-09    6.617205e-12    8.559315e-10    6.812770e-11   -1.690000e+00    7.336898e-01    6.267991e-01
    1.334796e+00    1.711600e+00    1.184063e+02    2.326310e+10    1.081291e-09    8.411335e-12    8.561490e-10    6.794475e-11   -1.680000e+00    7.336898e-01    6.219529e-01
    1.361281e+00    1.765793e+00    1.168209e+02    2.343237e+10    1.080121e-09    1.012340e-11    8.563185e-10    6.776705e-11   -1.670000e+00    7.336898e-01    6.171024e-01
    1.388313e+00    1.821988e+00    1.152259e+02    2.359626e+10    1.078983e-09    1.175588e-11    8.564415e-10    6.759450e-11   -1.660000e+00    7.336898e-01    6.122471e-01
    1.415902e+00    1.880238e+00    1.136217e+02    2.375453e+10    1.077874e-09    1.331131e-11    8.565185e-10    6.742705e-11   -1.650000e+00    7.336898e-01    6.073863e-01
    1.444059e+00    1.940592e+00    1.120085e+02    2.390692e+10    1.076794e-09    1.479232e-11    8.565515e-10    6.726450e-11   -1.640000e+00    7.336898e-01    6.025196e-01
    1.472794e+00    2.003094e+00    1.103869e+02    2.405316e+10    1.075740e-09    1.620152e-11    8.565420e-10    6.710685e-11   -1.630000e+00    7.336898e-01    5.976462e-01
    1.502118e+00    2.067790e+00    1.087571e+02    2.419300e+10    1.074713e-09    1.754156e-11    8.564900e-10    6.695390e-11   -1.620000e+00    7.336898e-01    5.927656e-01
    1.532045e+00    2.134715e+00    1.071196e+02    2.432618e+10    1.073710e-09    1.881509e-11    8.563975e-10    6.680555e-11   -1.610000e+00    7.336898e-01    5.878771e-01
    1.562583e+00    2.203904e+00    1.054750e+02    2.445247e+10    1.072729e-09    2.002472e-11    8.562660e-10    6.666170e-11   -1.600000e+00    7.336898e-01    5.829800e-01
    1.593748e+00    2.275387e+00    1.038235e+02    2.457163e+10    1.071770e-09    2.117305e-11    8.560955e-10    6.652220e-11   -1.590000e+00    7.336898e-01    5.780739e-01
    1.625552e+00    2.349189e+00    1.021658e+02    2.468343e+10    1.070831e-09    2.226264e-11    8.558875e-10    6.638690e-11   -1.580000e+00    7.336898e-01    5.731579e-01
    1.658010e+00    2.425333e+00    1.005022e+02    2.478766e+10    1.069911e-09    2.329601e-11    8.556430e-10    6.625565e-11   -1.570000e+00    7.336898e-01    5.682315e-01
    1.691138e+00    2.503831e+00    9.883330e+01    2.488411e+10    1.069007e-09    2.427560e-11    8.553630e-10    6.612835e-11   -1.560000e+00    7.336898e-01    5.632939e-01
    1.724953e+00    2.584701e+00    9.715955e+01    2.497258e+10    1.068118e-09    2.520381e-11    8.550480e-10    6.600485e-11   -1.550000e+00    7.336898e-01    5.583445e-01
    1.759471e+00    2.667945e+00    9.548155e+01    2.505290e+10    1.067244e-09    2.608297e-11    8.546990e-10    6.588500e-11   -1.540000e+00    7.336898e-01    5.533826e-01
    1.794713e+00    2.753574e+00    9.379980e+01    2.512490e+10    1.066382e-09    2.691531e-11    8.543160e-10    6.576865e-11   -1.530000e+00    7.336898e-01    5.484076e-01
    1.830700e+00    2.841585e+00    9.211485e+01    2.518842e+10    1.065531e-09    2.770302e-11    8.539000e-10    6.565565e-11   -1.520000e+00    7.336898e-01    5.434186e-01
    1.867454e+00    2.931977e+00    9.042730e+01    2.524333e+10    1.064690e-09    2.844820e-11    8.534515e-10    6.554585e-11   -1.510000e+00    7.336898e-01    5.384150e-01
    1.905000e+00    3.024746e+00    8.873765e+01    2.528951e+10    1.063855e-09    2.915286e-11    8.529710e-10    6.543915e-11   -1.500000e+00    7.336898e-01    5.333961e-01
    1.943361e+00    3.119883e+00    8.704660e+01    2.532684e+10    1.063028e-09    2.981893e-11    8.524585e-10    6.533540e-11   -1.490000e+00    7.336898e-01    5.283612e-01
    1.982570e+00    3.217379e+00    8.535460e+01    2.535521e+10    1.062205e-09    3.044827e-11    8.519140e-10    6.523440e-11   -1.480000e+00    7.336898e-01    5.233095e-01
    2.022653e+00    3.317224e+00    8.366235e+01    2.537457e+10    1.061385e-09    3.104265e-11    8.513380e-10    6.513605e-11   -1.470000e+00    7.336898e-01    5.182403e-01
    2.063643e+00    3.419403e+00    8.197040e+01    2.538480e+10    1.060567e-09    3.160376e-11    8.507300e-10    6.504020e-11   -1.460000e+00    7.336898e-01    5.131528e-01
    2.105574e+00    3.523901e+00    8.027940e+01    2.538585e+10    1.059749e-09    3.213321e-11    8.500905e-10    6.494670e-11   -1.450000e+00    7.336898e-01    5.080464e-01
    2.148482e+00    3.630704e+00    7.858995e+01    2.537768e+10    1.058930e-09    3.263253e-11    8.494190e-10    6.485540e-11   -1.440000e+00    7.336898e-01    5.029201e-01
    2.192408e+00    3.739794e+00    7.690265e+01    2.536024e+10    1.058107e-09    3.310318e-11    8.487150e-10    6.476620e-11   -1.430000e+00    7.336898e-01    4.977734e-01
    2.237391e+00    3.851153e+00    7.521810e+01    2.533348e+10    1.057279e-09    3.354653e-11    8.479785e-10    6.467890e-11   -1.420000e+00    7.336898e-01    4.926054e-01
    2.283476e+00    3.964763e+00    7.353700e+01    2.529738e+10    1.056445e-09    3.396389e-11    8.472085e-10    6.459340e-11   -1.410000e+00    7.336898e-01    4.874154e-01
    2.330709e+00    4.080603e+00    7.185990e+01    2.525192e+10    1.055603e-09    3.435648e-11    8.464045e-10    6.450955e-11   -1.400000e+00    7.336898e-01    4.822025e-01
    2.379140e+00    4.198653e+00    7.018750e+01    2.519708e+10    1.054751e-09    3.472549e-11    8.455660e-10    6.442720e-11   -1.390000e+00    7.336898e-01    4.769660e-01
    2.428820e+00    4.318892e+00    6.852040e+01    2.513284e+10    1.053887e-09    3.507199e-11    8.446920e-10    6.434615e-11   -1.380000e+00    7.336898e-01    4.717052e-01
    2.479806e+00    4.441297e+00    6.685925e+01    2.505920e+10    1.053010e-09    3.539702e-11    8.437810e-10    6.426640e-11   -1.370000e+00    7.336898e-01    4.664192e-01
    2.532158e+00    4.565847e+00    6.520465e+01    2.497616e+10    1.052117e-09    3.570155e-11    8.428330e-10    6.418765e-11   -1.360000e+00    7.336898e-01    4.611074e-01
    2.585936e+00    4.692514e+00    6.355730e+01    2.488372e+10    1.051207e-09    3.598648e-11    8.418455e-10    6.410980e-11   -1.350000e+00    7.336898e-01    4.557688e-01
    2.641209e+00    4.821275e+00    6.191775e+01    2.478186e+10    1.050278e-09    3.625266e-11    8.408180e-10    6.403270e-11   -1.340000e+00    7.336898e-01    4.504027e-01
    2.698043e+00    4.952102e+00    6.028675e+01    2.467063e+10    1.049327e-09    3.650090e-11    8.397485e-10    6.395625e-11   -1.330000e+00    7.336898e-01    4.450084e-01
    2.756517e+00    5.084966e+00    5.866485e+01    2.455000e+10    1.048352e-09    3.673190e-11    8.386360e-10    6.388020e-11   -1.320000e+00    7.336898e-01    4.395850e-01
    2.816706e+00    5.219835e+00    5.705275e+01    2.441997e+10    1.047353e-09    3.694638e-11    8.374775e-10    6.380440e-11   -1.310000e+00    7.336898e-01    4.341319e-01
    2.878697e+00    5.356679e+00    5.545105e+01    2.428059e+10    1.046325e-09    3.714496e-11    8.362720e-10    6.372870e-11   -1.300000e+00    7.336898e-01    4.286482e-01
    2.942574e+00    5.495460e+00    5.386045e+01    2.413183e+10    1.045267e-09    3.732822e-11    8.350175e-10    6.365295e-11   -1.290000e+00    7.336898e-01    4.231332e-01
    3.008437e+00    5.636140e+00    5.228150e+01    2.397373e+10    1.044176e-09    3.749671e-11    8.337110e-10    6.357690e-11   -1.280000e+00    7.336898e-01    4.175861e-01
    3.076380e+00    5.778679e+00    5.071495e+01    2.380627e+10    1.043049e-09    3.765092e-11    8.323505e-10    6.350040e-11   -1.270000e+00    7.336898e-01    4.120062e-01
    3.146513e+00    5.923034e+00    4.916136e+01    2.362947e+10    1.041885e-09    3.779129e-11    8.309330e-10    6.342325e-11   -1.260000e+00    7.336898e-01    4.063929e-01
    3.218947e+00    6.069157e+00    4.762141e+01    2.344335e+10    1.040679e-09    3.791822e-11    8.294560e-10    6.334520e-11   -1.250000e+00    7.336898e-01    4.007453e-01
    3.293802e+00    6.216999e+00    4.609575e+01    2.324790e+10    1.039429e-09    3.803211e-11    8.279165e-10    6.326610e-11   -1.240000e+00    7.336898e-01    3.950628e-01
    3.371204e+00    6.366500e+00    4.458502e+01    2.304313e+10    1.038132e-09    3.813326e-11    8.263110e-10    6.318570e-11   -1.230000e+00    7.336898e-01    3.893447e-01
    3.451288e+00    6.517605e+00    4.308987e+01    2.282905e+10    1.036785e-09    3.822195e-11    8.246365e-10    6.310370e-11   -1.220000e+00    7.336898e-01    3.835904e-01
    3.534198e+00    6.670248e+00    4.161093e+01    2.260564e+10    1.035385e-09    3.829845e-11    8.228885e-10    6.301990e-11   -1.210000e+00    7.336898e-01    3.777993e-01
    3.620087e+00    6.824361e+00    4.014886e+01    2.237292e+10    1.033927e-09    3.836297e-11    8.210640e-10    6.293405e-11   -1.200000e+00    7.336898e-01    3.719707e-01
    3.709115e+00    6.979869e+00    3.870430e+01    2.213086e+10    1.032408e-09    3.841567e-11    8.191585e-10    6.284580e-11   -1.190000e+00    7.336898e-01    3.661042e-01
    3.801455e+00    7.136688e+00    3.727790e+01    2.187946e+10    1.030825e-09    3.845671e-11    8.171680e-10    6.275495e-11   -1.180000e+00    7.336898e-01    3.601993e-01
    3.897291e+00    7.294737e+00    3.587031e+01    2.161872e+10    1.029172e-09    3.848621e-11    8.150870e-10    6.266110e-11   -1.170000e+00    7.336898e-01    3.542554e-01
    3.996814e+00    7.453918e+00    3.448217e+01    2.134860e+10    1.027447e-09    3.850423e-11    8.129120e-10    6.256395e-11   -1.160000e+00    7.336898e-01    3.482723e-01
    4.100234e+00    7.614133e+00    3.311415e+01    2.106908e+10    1.025644e-09    3.851082e-11    8.106365e-10    6.246315e-11   -1.150000e+00    7.336898e-01    3.422495e-01
    4.207767e+00    7.775271e+00    3.176688e+01    2.078013e+10    1.023760e-09    3.850600e-11    8.082560e-10    6.235830e-11   -1.140000e+00    7.336898e-01    3.361868e-01
    4.319646e+00    7.937221e+00    3.044101e+01    2.048172e+10    1.021789e-09    3.848975e-11    8.057645e-10    6.224905e-11   -1.130000e+00    7.336898e-01    3.300840e-01
    4.436115e+00    8.099856e+00    2.913721e+01    2.017380e+10    1.019725e-09    3.846202e-11    8.031560e-10    6.213495e-11   -1.120000e+00    7.336898e-01    3.239411e-01
    4.557436e+00    8.263043e+00    2.785611e+01    1.985633e+10    1.017565e-09    3.842274e-11    8.004245e-10    6.201555e-11   -1.110000e+00    7.336898e-01    3.177580e-01
    4.683882e+00    8.426639e+00    2.659838e+01    1.952925e+10    1.015303e-09    3.837181e-11    7.975635e-10    6.189045e-11   -1.100000e+00    7.336898e-01    3.115350e-01
    4.815739e+00    8.590493e+00    2.536466e+01    1.919249e+10    1.012933e-09    3.830911e-11    7.945660e-10    6.175915e-11   -1.090000e+00    7.336898e-01    3.052722e-01
    4.953315e+00    8.754443e+00    2.415560e+01    1.884601e+10    1.010449e-09    3.823446e-11    7.914250e-10    6.162105e-11   -1.080000e+00    7.336898e-01    2.989702e-01
    5.096924e+00    8.918316e+00    2.297187e+01    1.848973e+10    1.007846e-09    3.814771e-11    7.881335e-10    6.147565e-11   -1.070000e+00    7.336898e-01    2.926295e-01
    5.246900e+00    9.081928e+00    2.181410e+01    1.812357e+10    1.005117e-09    3.804863e-11    7.846830e-10    6.132240e-11   -1.060000e+00    7.336898e-01    2.862509e-01
    5.403585e+00    9.245079e+00    2.068295e+01    1.774746e+10    1.002256e-09    3.793699e-11    7.810665e-10    6.116070e-11   -1.050000e+00    7.336898e-01    2.798354e-01
    5.567337e+00    9.407566e+00    1.957907e+01    1.736133e+10    9.992560e-10    3.781257e-11    7.772755e-10    6.098990e-11   -1.040000e+00    7.336898e-01    2.733844e-01
    5.738522e+00    9.569173e+00    1.850310e+01    1.696512e+10    9.961110e-10    3.767508e-11    7.733010e-10    6.080930e-11   -1.030000e+00    7.336898e-01    2.668994e-01
    5.917514e+00    9.729664e+00    1.745568e+01    1.655877e+10    9.928140e-10    3.752423e-11    7.691355e-10    6.061830e-11   -1.020000e+00    7.336898e-01    2.603822e-01
    6.104685e+00    9.888794e+00    1.643743e+01    1.614223e+10    9.893585e-10    3.735972e-11    7.647695e-10    6.041610e-11   -1.010000e+00    7.336898e-01    2.538351e-01
    6.300412e+00    1.004631e+01    1.544897e+01    1.571547e+10    9.857375e-10    3.718124e-11    7.601945e-10    6.020200e-11   -1.000000e+00    7.336898e-01    2.472607e-01
    6.505062e+00    1.020194e+01    1.449093e+01    1.527853e+10    9.819430e-10    3.698845e-11    7.554010e-10    5.997515e-11   -9.900000e-01    7.336898e-01    2.406620e-01
    6.718985e+00    1.035539e+01    1.356388e+01    1.483141e+10    9.779695e-10    3.678101e-11    7.503800e-10    5.973485e-11   -9.800000e-01    7.336898e-01    2.340427e-01
    6.942508e+00    1.050639e+01    1.266840e+01    1.437424e+10    9.738085e-10    3.655858e-11    7.451220e-10    5.948020e-11   -9.700000e-01    7.336898e-01    2.274067e-01
    7.175920e+00    1.065463e+01    1.180505e+01    1.390716e+10    9.694540e-10    3.632082e-11    7.396185e-10    5.921035e-11   -9.600000e-01    7.336898e-01    2.207587e-01
    7.419464e+00    1.079978e+01    1.097433e+01    1.343040e+10    9.648990e-10    3.606735e-11    7.338595e-10    5.892445e-11   -9.500000e-01    7.336898e-01    2.141042e-01
    7.673315e+00    1.094152e+01    1.017673e+01    1.294429e+10    9.601370e-10    3.579785e-11    7.278370e-10    5.862160e-11   -9.400000e-01    7.336898e-01    2.074490e-01
    7.937569e+00    1.107953e+01    9.412680e+00    1.244928e+10    9.551610e-10    3.551198e-11    7.215410e-10    5.830090e-11   -9.300000e-01    7.336898e-01    2.008000e-01
    8.212200e+00    1.121345e+01    8.682570e+00    1.194593e+10    9.499655e-10    3.520941e-11    7.149640e-10    5.796145e-11   -9.200000e-01    7.336898e-01    1.941647e-01
    8.497061e+00    1.134294e+01    7.986720e+00    1.143497e+10    9.445445e-10    3.488984e-11    7.080975e-10    5.760235e-11   -9.100000e-01    7.336898e-01    1.875516e-01
    8.791869e+00    1.146765e+01    7.325365e+00    1.091729e+10    9.388925e-10    3.455299e-11    7.009335e-10    5.722265e-11   -9.000000e-01    7.336898e-01    1.809699e-01
    9.096114e+00    1.158724e+01    6.698685e+00    1.039397e+10    9.330050e-10    3.419860e-11    6.934655e-10    5.682145e-11   -8.900000e-01    7.336898e-01    1.744300e-01
    9.409111e+00    1.170135e+01    6.106730e+00    9.866312e+09    9.268780e-10    3.382647e-11    6.856870e-10    5.639790e-11   -8.800000e-01    7.336898e-01    1.679430e-01
    9.729902e+00    1.180965e+01    5.549470e+00    9.335827e+09    9.205075e-10    3.343639e-11    6.775920e-10    5.595115e-11   -8.700000e-01    7.336898e-01    1.615209e-01
    1.005726e+01    1.191179e+01    5.026740e+00    8.804242e+09    9.138910e-10    3.302826e-11    6.691765e-10    5.548035e-11   -8.600000e-01    7.336898e-01    1.551767e-01
    1.038970e+01    1.200748e+01    4.538246e+00    8.273530e+09    9.070270e-10    3.260197e-11    6.604365e-10    5.498475e-11   -8.500000e-01    7.336898e-01    1.489240e-01
    1.072537e+01    1.209639e+01    4.083552e+00    7.745857e+09    8.999140e-10    3.215754e-11    6.513690e-10    5.446365e-11   -8.400000e-01    7.336898e-01    1.427773e-01
    1.106214e+01    1.217825e+01    3.662074e+00    7.223576e+09    8.925535e-10    3.169498e-11    6.419735e-10    5.391635e-11   -8.300000e-01    7.336898e-01    1.367515e-01
    1.139757e+01    1.225281e+01    3.273071e+00    6.709208e+09    8.849455e-10    3.121442e-11    6.322500e-10    5.334225e-11   -8.200000e-01    7.336898e-01    1.308617e-01
    1.172890e+01    1.231984e+01    2.915647e+00    6.205351e+09    8.770940e-10    3.071607e-11    6.221995e-10    5.274095e-11   -8.100000e-01    7.336898e-01    1.251235e-01
    1.205317e+01    1.237916e+01    2.588747e+00    5.714661e+09    8.690020e-10    3.020018e-11    6.118265e-10    5.211200e-11   -8.000000e-01    7.336898e-01    1.195520e-01
    1.236722e+01    1.243063e+01    2.291170e+00    5.239744e+09    8.606755e-10    2.966712e-11    6.011350e-10    5.145515e-11   -7.900000e-01    7.336898e-01    1.141619e-01
    1.266779e+01    1.247415e+01    2.021571e+00    4.783092e+09    8.521210e-10    2.911736e-11    5.901320e-10    5.077025e-11   -7.800000e-01    7.336898e-01    1.089674e-01
    1.295165e+01    1.250971e+01    1.778485e+00    4.346995e+09    8.433475e-10    2.855143e-11    5.788260e-10    5.005720e-11   -7.700000e-01    7.336898e-01    1.039812e-01
    1.321569e+01    1.253732e+01    1.560346e+00    3.933469e+09    8.343635e-10    2.797000e-11    5.672280e-10    4.931624e-11   -7.600000e-01    7.336898e-01    9.921485e-02
    1.345706e+01    1.255708e+01    1.365504e+00    3.544164e+09    8.251820e-10    2.737378e-11    5.553500e-10    4.854755e-11   -7.500000e-01    7.336898e-01    9.467802e-02
    1.367332e+01    1.256918e+01    1.192260e+00    3.180338e+09    8.158145e-10    2.676363e-11    5.432070e-10    4.775158e-11   -7.400000e-01    7.336898e-01    9.037849e-02
    1.386250e+01    1.257384e+01    1.038885e+00    2.842792e+09    8.062765e-10    2.614049e-11    5.308145e-10    4.692893e-11   -7.300000e-01    7.336898e-01    8.632180e-02
    1.402327e+01    1.257140e+01    9.036575e-01    2.531874e+09    7.965835e-10    2.550536e-11    5.181915e-10    4.608036e-11   -7.200000e-01    7.336898e-01    8.251120e-02
