# sky130 pfet_01v8 gm/ID Processed Lookup Table
# Corner: ff
# Temperature: 85C
# W = 2.0 um
# L = 4.5 um (4500 nm)
# Columns: gm/id [1/V]  gm/gds [V/V]  id/W [A/m]  ft [Hz]  Cgg/W [F/m]  Cgd/W [F/m]  Cgs/W [F/m]  Cdb/W [F/m]  vgs [V]  vth [V]  vdsat [V]
# vdsat = BSIM4 saturation voltage (|VDS|_sat, positive); use for headroom / saturation / cascode-bias calculations
#           gm/id          gm/gds            id/W              ft           Cgg/W           Cgd/W           Cgs/W           Cdb/W             vgs             vth           vdsat
    1.648258e+00    2.601249e+00    4.871689e+00    4.247160e+07    3.009028e-08    4.454462e-09    2.629575e-08    2.946091e-09   -1.800000e+00    9.107850e-01    7.724421e-01
    1.679776e+00    2.724395e+00    4.791391e+00    4.275582e+07    2.995974e-08    4.267258e-09    2.632541e-08    2.928823e-09   -1.790000e+00    9.107850e-01    7.640972e-01
    1.712329e+00    2.858248e+00    4.710723e+00    4.303828e+07    2.982908e-08    4.081492e-09    2.635320e-08    2.911384e-09   -1.780000e+00    9.107850e-01    7.557581e-01
    1.745843e+00    3.004122e+00    4.629974e+00    4.331798e+07    2.969859e-08    3.897604e-09    2.637898e-08    2.893810e-09   -1.770000e+00    9.107850e-01    7.474248e-01
    1.780382e+00    3.163533e+00    4.549062e+00    4.359388e+07    2.956853e-08    3.716033e-09    2.640263e-08    2.876144e-09   -1.760000e+00    9.107850e-01    7.390972e-01
    1.815973e+00    3.338229e+00    4.467996e+00    4.386483e+07    2.943919e-08    3.537223e-09    2.642404e-08    2.858429e-09   -1.750000e+00    9.107850e-01    7.307755e-01
    1.852638e+00    3.530232e+00    4.386791e+00    4.412952e+07    2.931085e-08    3.361606e-09    2.653929e-08    2.941193e-09   -1.740000e+00    9.107850e-01    7.224594e-01
    1.890397e+00    3.741873e+00    4.305459e+00    4.438650e+07    2.918379e-08    3.189601e-09    2.655054e-08    2.918059e-09   -1.730000e+00    9.107850e-01    7.141490e-01
    1.929267e+00    3.975861e+00    4.224016e+00    4.463426e+07    2.905827e-08    3.021612e-09    2.655948e-08    2.895251e-09   -1.720000e+00    9.107850e-01    7.058442e-01
    1.969259e+00    4.235330e+00    4.142480e+00    4.487110e+07    2.893455e-08    2.858014e-09    2.656604e-08    2.872807e-09   -1.710000e+00    9.107850e-01    6.975450e-01
    2.010377e+00    4.523914e+00    4.060871e+00    4.509521e+07    2.881286e-08    2.699154e-09    2.657013e-08    2.850771e-09   -1.700000e+00    9.107850e-01    6.892514e-01
    2.052621e+00    4.845826e+00    3.979210e+00    4.530470e+07    2.869343e-08    2.545340e-09    2.657171e-08    2.829181e-09   -1.690000e+00    9.107850e-01    6.809634e-01
    2.095979e+00    5.205930e+00    3.897523e+00    4.549748e+07    2.857646e-08    2.396845e-09    2.657073e-08    2.808070e-09   -1.680000e+00    9.107850e-01    6.726808e-01
    2.140434e+00    5.609860e+00    3.815838e+00    4.567148e+07    2.846210e-08    2.253896e-09    2.656716e-08    2.787472e-09   -1.670000e+00    9.107850e-01    6.644037e-01
    2.185960e+00    6.064088e+00    3.734183e+00    4.582446e+07    2.835050e-08    2.116677e-09    2.656099e-08    2.767413e-09   -1.660000e+00    9.107850e-01    6.561321e-01
    2.232522e+00    6.576057e+00    3.652594e+00    4.595422e+07    2.824177e-08    1.985321e-09    2.655220e-08    2.747917e-09   -1.650000e+00    9.107850e-01    6.478659e-01
    2.280075e+00    7.154252e+00    3.571106e+00    4.605852e+07    2.813598e-08    1.859920e-09    2.654080e-08    2.729001e-09   -1.640000e+00    9.107850e-01    6.396051e-01
    2.328572e+00    7.808321e+00    3.489760e+00    4.613524e+07    2.803318e-08    1.740518e-09    2.652680e-08    2.710680e-09   -1.630000e+00    9.107850e-01    6.313497e-01
    2.377959e+00    8.549155e+00    3.408598e+00    4.618240e+07    2.793340e-08    1.627114e-09    2.651022e-08    2.692962e-09   -1.620000e+00    9.107850e-01    6.230996e-01
    2.428183e+00    9.388942e+00    3.327665e+00    4.619819e+07    2.783660e-08    1.519667e-09    2.649110e-08    2.675851e-09   -1.610000e+00    9.107850e-01    6.148548e-01
    2.479189e+00    1.034120e+01    3.247010e+00    4.618104e+07    2.774276e-08    1.418099e-09    2.646947e-08    2.659345e-09   -1.600000e+00    9.107850e-01    6.066154e-01
    2.530931e+00    1.142082e+01    3.166683e+00    4.612982e+07    2.765179e-08    1.322297e-09    2.644536e-08    2.643440e-09   -1.590000e+00    9.107850e-01    5.983812e-01
    2.583369e+00    1.264400e+01    3.086734e+00    4.604365e+07    2.756362e-08    1.232117e-09    2.641881e-08    2.628126e-09   -1.580000e+00    9.107850e-01    5.901523e-01
    2.636479e+00    1.402819e+01    3.007217e+00    4.592216e+07    2.747811e-08    1.147392e-09    2.638986e-08    2.613390e-09   -1.570000e+00    9.107850e-01    5.819286e-01
    2.690251e+00    1.559197e+01    2.928183e+00    4.576541e+07    2.739515e-08    1.067931e-09    2.635854e-08    2.599216e-09   -1.560000e+00    9.107850e-01    5.737102e-01
    2.744689e+00    1.735492e+01    2.849683e+00    4.557381e+07    2.731458e-08    9.935305e-10    2.632490e-08    2.585583e-09   -1.550000e+00    9.107850e-01    5.654970e-01
    2.799820e+00    1.933744e+01    2.771769e+00    4.534822e+07    2.723623e-08    9.239705e-10    2.628896e-08    2.572470e-09   -1.540000e+00    9.107850e-01    5.572891e-01
    2.855687e+00    2.156055e+01    2.694490e+00    4.508981e+07    2.715994e-08    8.590245e-10    2.625073e-08    2.559853e-09   -1.530000e+00    9.107850e-01    5.490864e-01
    2.912347e+00    2.404567e+01    2.617892e+00    4.479996e+07    2.708553e-08    7.984595e-10    2.621026e-08    2.547705e-09   -1.520000e+00    9.107850e-01    5.408889e-01
    2.969880e+00    2.681449e+01    2.542020e+00    4.448038e+07    2.701280e-08    7.420410e-10    2.616756e-08    2.536000e-09   -1.510000e+00    9.107850e-01    5.326967e-01
    3.028377e+00    2.988873e+01    2.466916e+00    4.413284e+07    2.694155e-08    6.895365e-10    2.612262e-08    2.524708e-09   -1.500000e+00    9.107850e-01    5.245098e-01
    3.087938e+00    3.328994e+01    2.392618e+00    4.375913e+07    2.687159e-08    6.407145e-10    2.607543e-08    2.513800e-09   -1.490000e+00    9.107850e-01    5.163281e-01
    3.148678e+00    3.703949e+01    2.319162e+00    4.336114e+07    2.680272e-08    5.953495e-10    2.602601e-08    2.503249e-09   -1.480000e+00    9.107850e-01    5.081518e-01
    3.210719e+00    4.115841e+01    2.246583e+00    4.294069e+07    2.673473e-08    5.532230e-10    2.597433e-08    2.493021e-09   -1.470000e+00    9.107850e-01    4.999809e-01
    3.274190e+00    4.566731e+01    2.174909e+00    4.249950e+07    2.666743e-08    5.141235e-10    2.592036e-08    2.483089e-09   -1.460000e+00    9.107850e-01    4.918155e-01
    3.339226e+00    5.058641e+01    2.104170e+00    4.203925e+07    2.660063e-08    4.778486e-10    2.586406e-08    2.473421e-09   -1.450000e+00    9.107850e-01    4.836556e-01
    3.405970e+00    5.593560e+01    2.034391e+00    4.156148e+07    2.653410e-08    4.442051e-10    2.580539e-08    2.463989e-09   -1.440000e+00    9.107850e-01    4.755012e-01
    3.474562e+00    6.173424e+01    1.965596e+00    4.106756e+07    2.646766e-08    4.130097e-10    2.574430e-08    2.454761e-09   -1.430000e+00    9.107850e-01    4.673526e-01
    3.545151e+00    6.800160e+01    1.897806e+00    4.055874e+07    2.640112e-08    3.840891e-10    2.568073e-08    2.445710e-09   -1.420000e+00    9.107850e-01    4.592098e-01
    3.617899e+00    7.475684e+01    1.831042e+00    4.003629e+07    2.633426e-08    3.572799e-10    2.561459e-08    2.436807e-09   -1.410000e+00    9.107850e-01    4.510729e-01
    3.692955e+00    8.201879e+01    1.765322e+00    3.950111e+07    2.626690e-08    3.324288e-10    2.554582e-08    2.428021e-09   -1.400000e+00    9.107850e-01    4.429422e-01
    3.770492e+00    8.980660e+01    1.700662e+00    3.895418e+07    2.619885e-08    3.093921e-10    2.547432e-08    2.419326e-09   -1.390000e+00    9.107850e-01    4.348178e-01
    3.850678e+00    9.813953e+01    1.637080e+00    3.839631e+07    2.612991e-08    2.880358e-10    2.539999e-08    2.410693e-09   -1.380000e+00    9.107850e-01    4.266999e-01
    3.933687e+00    1.070370e+02    1.574590e+00    3.782814e+07    2.605989e-08    2.682346e-10    2.532272e-08    2.402095e-09   -1.370000e+00    9.107850e-01    4.185889e-01
    4.019710e+00    1.165195e+02    1.513206e+00    3.725034e+07    2.598859e-08    2.498722e-10    2.524240e-08    2.393503e-09   -1.360000e+00    9.107850e-01    4.104849e-01
    4.108933e+00    1.266073e+02    1.452942e+00    3.666336e+07    2.591583e-08    2.328406e-10    2.515890e-08    2.384892e-09   -1.350000e+00    9.107850e-01    4.023884e-01
    4.201564e+00    1.373222e+02    1.393810e+00    3.606768e+07    2.584142e-08    2.170396e-10    2.507208e-08    2.376234e-09   -1.340000e+00    9.107850e-01    3.942998e-01
    4.297811e+00    1.486863e+02    1.335822e+00    3.546365e+07    2.576515e-08    2.023761e-10    2.498178e-08    2.367503e-09   -1.330000e+00    9.107850e-01    3.862194e-01
    4.397893e+00    1.607229e+02    1.278991e+00    3.485153e+07    2.568683e-08    1.887644e-10    2.488788e-08    2.358671e-09   -1.320000e+00    9.107850e-01    3.781479e-01
    4.502045e+00    1.734565e+02    1.223329e+00    3.423156e+07    2.560627e-08    1.761250e-10    2.479020e-08    2.349711e-09   -1.310000e+00    9.107850e-01    3.700858e-01
    4.610517e+00    1.869127e+02    1.168845e+00    3.360395e+07    2.552327e-08    1.643845e-10    2.468856e-08    2.340598e-09   -1.300000e+00    9.107850e-01    3.620337e-01
    4.723556e+00    2.011179e+02    1.115553e+00    3.296876e+07    2.543763e-08    1.534750e-10    2.458279e-08    2.331304e-09   -1.290000e+00    9.107850e-01    3.539926e-01
    4.841435e+00    2.161003e+02    1.063462e+00    3.232605e+07    2.534915e-08    1.433341e-10    2.447269e-08    2.321801e-09   -1.280000e+00    9.107850e-01    3.459632e-01
    4.964435e+00    2.318886e+02    1.012583e+00    3.167582e+07    2.525762e-08    1.339041e-10    2.435807e-08    2.312062e-09   -1.270000e+00    9.107850e-01    3.379466e-01
    5.092856e+00    2.485136e+02    9.629270e-01    3.101809e+07    2.516285e-08    1.251318e-10    2.423872e-08    2.302061e-09   -1.260000e+00    9.107850e-01    3.299439e-01
    5.227003e+00    2.660060e+02    9.145050e-01    3.035275e+07    2.506461e-08    1.169681e-10    2.411444e-08    2.291769e-09   -1.250000e+00    9.107850e-01    3.219564e-01
    5.367196e+00    2.843980e+02    8.673280e-01    2.967969e+07    2.496271e-08    1.093679e-10    2.398499e-08    2.281158e-09   -1.240000e+00    9.107850e-01    3.139855e-01
    5.513768e+00    3.037223e+02    8.214065e-01    2.899876e+07    2.485692e-08    1.022893e-10    2.385015e-08    2.270200e-09   -1.230000e+00    9.107850e-01    3.060330e-01
    5.667067e+00    3.240116e+02    7.767505e-01    2.830980e+07    2.474704e-08    9.569410e-11    2.370968e-08    2.258865e-09   -1.220000e+00    9.107850e-01    2.981008e-01
    5.827438e+00    3.452986e+02    7.333720e-01    2.761261e+07    2.463285e-08    8.954680e-11    2.356336e-08    2.247126e-09   -1.210000e+00    9.107850e-01    2.901909e-01
    5.995247e+00    3.676148e+02    6.912805e-01    2.690699e+07    2.451413e-08    8.381470e-11    2.341092e-08    2.234952e-09   -1.200000e+00    9.107850e-01    2.823058e-01
    6.170850e+00    3.909909e+02    6.504875e-01    2.619271e+07    2.439067e-08    7.846770e-11    2.325213e-08    2.222313e-09   -1.190000e+00    9.107850e-01    2.744482e-01
    6.354612e+00    4.154542e+02    6.110030e-01    2.546957e+07    2.426225e-08    7.347805e-11    2.308674e-08    2.209181e-09   -1.180000e+00    9.107850e-01    2.666211e-01
    6.546889e+00    4.410292e+02    5.728370e-01    2.473734e+07    2.412865e-08    6.882010e-11    2.291448e-08    2.195525e-09   -1.170000e+00    9.107850e-01    2.588279e-01
    6.748018e+00    4.677352e+02    5.360000e-01    2.399587e+07    2.398969e-08    6.447020e-11    2.273511e-08    2.181315e-09   -1.160000e+00    9.107850e-01    2.510725e-01
    6.958316e+00    4.955851e+02    5.005015e-01    2.324503e+07    2.384512e-08    6.040650e-11    2.254839e-08    2.166521e-09   -1.150000e+00    9.107850e-01    2.433591e-01
    7.178076e+00    5.245836e+02    4.663501e-01    2.248474e+07    2.369477e-08    5.660885e-11    2.235405e-08    2.151113e-09   -1.140000e+00    9.107850e-01    2.356926e-01
    7.407541e+00    5.547251e+02    4.335542e-01    2.171502e+07    2.353842e-08    5.305860e-11    2.215187e-08    2.135061e-09   -1.130000e+00    9.107850e-01    2.280781e-01
    7.646892e+00    5.859909e+02    4.021210e-01    2.093599e+07    2.337590e-08    4.973856e-11    2.194159e-08    2.118337e-09   -1.120000e+00    9.107850e-01    2.205216e-01
    7.896243e+00    6.183470e+02    3.720565e-01    2.014791e+07    2.320702e-08    4.663280e-11    2.172301e-08    2.100911e-09   -1.110000e+00    9.107850e-01    2.130295e-01
    8.155608e+00    6.517412e+02    3.433652e-01    1.935121e+07    2.303163e-08    4.372659e-11    2.149590e-08    2.082756e-09   -1.100000e+00    9.107850e-01    2.056090e-01
    8.424885e+00    6.860993e+02    3.160500e-01    1.854651e+07    2.284956e-08    4.100632e-11    2.126008e-08    2.063844e-09   -1.090000e+00    9.107850e-01    1.982678e-01
    8.703839e+00    7.213230e+02    2.901113e-01    1.773465e+07    2.266069e-08    3.845937e-11    2.101535e-08    2.044150e-09   -1.080000e+00    9.107850e-01    1.910143e-01
    8.992064e+00    7.572858e+02    2.655472e-01    1.691676e+07    2.246489e-08    3.607405e-11    2.076157e-08    2.023651e-09   -1.070000e+00    9.107850e-01    1.838577e-01
    9.288966e+00    7.938304e+02    2.423528e-01    1.609423e+07    2.226206e-08    3.383954e-11    2.049859e-08    2.002324e-09   -1.060000e+00    9.107850e-01    1.768079e-01
    9.593739e+00    8.307667e+02    2.205197e-01    1.526879e+07    2.205215e-08    3.174580e-11    2.022630e-08    1.980148e-09   -1.050000e+00    9.107850e-01    1.698753e-01
    9.905332e+00    8.678699e+02    2.000359e-01    1.444249e+07    2.183510e-08    2.978351e-11    1.994464e-08    1.957105e-09   -1.040000e+00    9.107850e-01    1.630710e-01
    1.022243e+01    9.048793e+02    1.808851e-01    1.361772e+07    2.161089e-08    2.794403e-11    1.965356e-08    1.933182e-09   -1.030000e+00    9.107850e-01    1.564065e-01
    1.054346e+01    9.415021e+02    1.630465e-01    1.279724e+07    2.137954e-08    2.621933e-11    1.935306e-08    1.908365e-09   -1.020000e+00    9.107850e-01    1.498940e-01
    1.086655e+01    9.774126e+02    1.464942e-01    1.198408e+07    2.114110e-08    2.460196e-11    1.904316e-08    1.882645e-09   -1.010000e+00    9.107850e-01    1.435458e-01
    1.118958e+01    1.012262e+03    1.311975e-01    1.118159e+07    2.089564e-08    2.308497e-11    1.872395e-08    1.856019e-09   -1.000000e+00    9.107850e-01    1.373742e-01
    1.151014e+01    1.045680e+03    1.171204e-01    1.039331e+07    2.064331e-08    2.166192e-11    1.839556e-08    1.828484e-09   -9.900000e-01    9.107850e-01    1.313917e-01
    1.182564e+01    1.077294e+03    1.042215e-01    9.622927e+06    2.038425e-08    2.032681e-11    1.805815e-08    1.800045e-09   -9.800000e-01    9.107850e-01    1.256102e-01
    1.213332e+01    1.106732e+03    9.245445e-02    8.874177e+06    2.011867e-08    1.907405e-11    1.771197e-08    1.770709e-09   -9.700000e-01    9.107850e-01    1.200412e-01
    1.243034e+01    1.133647e+03    8.176815e-02    8.150720e+06    1.984683e-08    1.789842e-11    1.735729e-08    1.740489e-09   -9.600000e-01    9.107850e-01    1.146953e-01
    1.271388e+01    1.157722e+03    7.210720e-02    7.456032e+06    1.956901e-08    1.679508e-11    1.699446e-08    1.709403e-09   -9.500000e-01    9.107850e-01    1.095821e-01
    1.298122e+01    1.178697e+03    6.341270e-02    6.793278e+06    1.928557e-08    1.575949e-11    1.662385e-08    1.677475e-09   -9.400000e-01    9.107850e-01    1.047098e-01
    1.322989e+01    1.196375e+03    5.562275e-02    6.165199e+06    1.899686e-08    1.478743e-11    1.624592e-08    1.644734e-09   -9.300000e-01    9.107850e-01    1.000850e-01
    1.345779e+01    1.210640e+03    4.867355e-02    5.574012e+06    1.870334e-08    1.387496e-11    1.586117e-08    1.611212e-09   -9.200000e-01    9.107850e-01    9.571251e-02
    1.366328e+01    1.221461e+03    4.250030e-02    5.021351e+06    1.840545e-08    1.301838e-11    1.547017e-08    1.576951e-09   -9.100000e-01    9.107850e-01    9.159514e-02
    1.384525e+01    1.228900e+03    3.703815e-02    4.508190e+06    1.810373e-08    1.221424e-11    1.507353e-08    1.541996e-09   -9.000000e-01    9.107850e-01    8.773376e-02
    1.400327e+01    1.233110e+03    3.222318e-02    4.034869e+06    1.779872e-08    1.145933e-11    1.467190e-08    1.506395e-09   -8.900000e-01    9.107850e-01    8.412714e-02
    1.413757e+01    1.234326e+03    2.799322e-02    3.601084e+06    1.749100e-08    1.075061e-11    1.426600e-08    1.470206e-09   -8.800000e-01    9.107850e-01    8.077204e-02
    1.424906e+01    1.232858e+03    2.428869e-02    3.205953e+06    1.718119e-08    1.008529e-11    1.385657e-08    1.433489e-09   -8.700000e-01    9.107850e-01    7.766330e-02
    1.433930e+01    1.229074e+03    2.105319e-02    2.848082e+06    1.686994e-08    9.460700e-12    1.344439e-08    1.396308e-09   -8.600000e-01    9.107850e-01    7.479398e-02
    1.441044e+01    1.223385e+03    1.823401e-02    2.525654e+06    1.655791e-08    8.874365e-12    1.303029e-08    1.358731e-09   -8.500000e-01    9.107850e-01    7.215560e-02
    1.446512e+01    1.216226e+03    1.578244e-02    2.236534e+06    1.624579e-08    8.323960e-12    1.261510e-08    1.320833e-09   -8.400000e-01    9.107850e-01    6.973837e-02
    1.450639e+01    1.208040e+03    1.365398e-02    1.978364e+06    1.593428e-08    7.807305e-12    1.219968e-08    1.282686e-09   -8.300000e-01    9.107850e-01    6.753144e-02
    1.453754e+01    1.199262e+03    1.180831e-02    1.748658e+06    1.562407e-08    7.322355e-12    1.178489e-08    1.244369e-09   -8.200000e-01    9.107850e-01    6.552317e-02
    1.456205e+01    1.190306e+03    1.020933e-02    1.544893e+06    1.531587e-08    6.867190e-12    1.137160e-08    1.205960e-09   -8.100000e-01    9.107850e-01    6.370142e-02
    1.458342e+01    1.181559e+03    8.824865e-03    1.364570e+06    1.501038e-08    6.440005e-12    1.096068e-08    1.167540e-09   -8.000000e-01    9.107850e-01    6.205376e-02
    1.460509e+01    1.173371e+03    7.626525e-03    1.205284e+06    1.470828e-08    6.039105e-12    1.055296e-08    1.129189e-09   -7.900000e-01    9.107850e-01    6.056771e-02
    1.463040e+01    1.166050e+03    6.589380e-03    1.064756e+06    1.441023e-08    5.662905e-12    1.014928e-08    1.090987e-09   -7.800000e-01    9.107850e-01    5.923093e-02
    1.466247e+01    1.159867e+03    5.691660e-03    9.408665e+05    1.411687e-08    5.309900e-12    9.750445e-09    1.053012e-09   -7.700000e-01    9.107850e-01    5.803141e-02
    1.470423e+01    1.155055e+03    4.914440e-03    8.316708e+05    1.382881e-08    4.978693e-12    9.357210e-09    1.015341e-09   -7.600000e-01    9.107850e-01    5.695756e-02
    1.475833e+01    1.151806e+03    4.241327e-03    7.354065e+05    1.354664e-08    4.667959e-12    8.970310e-09    9.780495e-10   -7.500000e-01    9.107850e-01    5.599835e-02
    1.482717e+01    1.150283e+03    3.658166e-03    6.504917e+05    1.327089e-08    4.376454e-12    8.590420e-09    9.412075e-10   -7.400000e-01    9.107850e-01    5.514335e-02
    1.491289e+01    1.150618e+03    3.152755e-03    5.755194e+05    1.300206e-08    4.103012e-12    8.218165e-09    9.048825e-10   -7.300000e-01    9.107850e-01    5.438279e-02
    1.501734e+01    1.152913e+03    2.714592e-03    5.092461e+05    1.274060e-08    3.846532e-12    7.854120e-09    8.691390e-10   -7.200000e-01    9.107850e-01    5.370760e-02
