# sky130 pfet_01v8 gm/ID Processed Lookup Table
# Corner: ff
# Temperature: 25C
# W = 2.0 um
# L = 1.5 um (1500 nm)
# Columns: gm/id [1/V]  gm/gds [V/V]  id/W [A/m]  ft [Hz]  Cgg/W [F/m]  Cgd/W [F/m]  Cgs/W [F/m]  Cdb/W [F/m]  vgs [V]  vth [V]  vdsat [V]
# vdsat = BSIM4 saturation voltage (|VDS|_sat, positive); use for headroom / saturation / cascode-bias calculations
#           gm/id          gm/gds            id/W              ft           Cgg/W           Cgd/W           Cgs/W           Cdb/W             vgs             vth           vdsat
    1.852148e+00    3.293504e+00    1.508621e+01    4.554898e+08    9.763315e-09    9.028220e-10    8.841560e-09    9.519955e-10   -1.800000e+00    9.816676e-01    7.228686e-01
    1.891493e+00    3.482333e+00    1.480679e+01    4.582165e+08    9.727810e-09    8.533320e-10    8.845705e-09    9.453120e-10   -1.790000e+00    9.816676e-01    7.144014e-01
    1.932098e+00    3.689907e+00    1.452609e+01    4.608258e+08    9.693070e-09    8.054575e-10    8.849080e-09    9.387740e-10   -1.780000e+00    9.816676e-01    7.059402e-01
    1.973853e+00    3.918671e+00    1.424517e+01    4.633020e+08    9.659140e-09    7.592700e-10    8.851685e-09    9.323900e-10   -1.770000e+00    9.816676e-01    6.974848e-01
    2.016811e+00    4.171409e+00    1.396376e+01    4.656276e+08    9.626070e-09    7.148275e-10    8.853505e-09    9.261690e-10   -1.760000e+00    9.816676e-01    6.890352e-01
    2.060973e+00    4.451292e+00    1.368195e+01    4.677845e+08    9.593890e-09    6.721760e-10    8.854545e-09    9.201185e-10   -1.750000e+00    9.816676e-01    6.805913e-01
    2.106336e+00    4.761912e+00    1.339983e+01    4.697526e+08    9.562640e-09    6.313480e-10    8.854800e-09    9.142445e-10   -1.740000e+00    9.816676e-01    6.721530e-01
    2.152886e+00    5.107335e+00    1.311750e+01    4.715123e+08    9.532330e-09    5.923620e-10    8.854285e-09    9.085520e-10   -1.730000e+00    9.816676e-01    6.637202e-01
    2.200601e+00    5.492110e+00    1.283506e+01    4.730421e+08    9.502975e-09    5.552245e-10    8.853005e-09    9.030440e-10   -1.720000e+00    9.816676e-01    6.552928e-01
    2.249453e+00    5.921318e+00    1.255264e+01    4.743205e+08    9.474585e-09    5.199295e-10    8.850975e-09    8.977235e-10   -1.710000e+00    9.816676e-01    6.468707e-01
    2.299400e+00    6.400566e+00    1.227038e+01    4.753261e+08    9.447150e-09    4.864594e-10    8.848200e-09    8.925905e-10   -1.700000e+00    9.816676e-01    6.384538e-01
    2.350400e+00    6.935980e+00    1.198840e+01    4.760385e+08    9.420655e-09    4.547864e-10    8.844705e-09    8.876455e-10   -1.690000e+00    9.816676e-01    6.300420e-01
    2.402403e+00    7.534178e+00    1.170688e+01    4.764379e+08    9.395085e-09    4.248735e-10    8.840500e-09    8.828870e-10   -1.680000e+00    9.816676e-01    6.216353e-01
    2.455358e+00    8.202203e+00    1.142596e+01    4.765064e+08    9.370420e-09    3.966754e-10    8.835605e-09    8.783115e-10   -1.670000e+00    9.816676e-01    6.132335e-01
    2.509215e+00    8.947437e+00    1.114584e+01    4.762294e+08    9.346620e-09    3.701402e-10    8.830040e-09    8.739160e-10   -1.660000e+00    9.816676e-01    6.048366e-01
    2.563931e+00    9.777486e+00    1.086668e+01    4.755946e+08    9.323660e-09    3.452100e-10    8.823820e-09    8.696955e-10   -1.650000e+00    9.816676e-01    5.964445e-01
    2.619472e+00    1.070003e+01    1.058867e+01    4.745946e+08    9.301490e-09    3.218227e-10    8.816960e-09    8.656455e-10   -1.640000e+00    9.816676e-01    5.880571e-01
    2.675814e+00    1.172269e+01    1.031201e+01    4.732255e+08    9.280070e-09    2.999128e-10    8.809485e-09    8.617595e-10   -1.630000e+00    9.816676e-01    5.796743e-01
    2.732954e+00    1.285282e+01    1.003688e+01    4.714873e+08    9.259360e-09    2.794123e-10    8.801405e-09    8.580305e-10   -1.620000e+00    9.816676e-01    5.712961e-01
    2.790901e+00    1.409739e+01    9.763465e+00    4.693850e+08    9.239305e-09    2.602522e-10    8.792730e-09    8.544525e-10   -1.610000e+00    9.816676e-01    5.629222e-01
    2.849686e+00    1.546284e+01    9.491960e+00    4.669269e+08    9.219855e-09    2.423629e-10    8.783475e-09    8.510175e-10   -1.600000e+00    9.816676e-01    5.545528e-01
    2.909358e+00    1.695499e+01    9.222540e+00    4.641247e+08    9.200960e-09    2.256749e-10    8.773655e-09    8.477175e-10   -1.590000e+00    9.816676e-01    5.461877e-01
    2.969983e+00    1.857897e+01    8.955380e+00    4.609925e+08    9.182570e-09    2.101198e-10    8.763270e-09    8.445450e-10   -1.580000e+00    9.816676e-01    5.378268e-01
    3.031643e+00    2.033920e+01    8.690650e+00    4.575468e+08    9.164630e-09    1.956304e-10    8.752330e-09    8.414920e-10   -1.570000e+00    9.816676e-01    5.294700e-01
    3.094440e+00    2.223943e+01    8.428495e+00    4.538053e+08    9.147085e-09    1.821417e-10    8.740835e-09    8.385500e-10   -1.560000e+00    9.816676e-01    5.211174e-01
    3.158486e+00    2.428285e+01    8.169065e+00    4.497864e+08    9.129880e-09    1.695908e-10    8.728785e-09    8.357115e-10   -1.550000e+00    9.816676e-01    5.127688e-01
    3.223901e+00    2.647212e+01    7.912500e+00    4.455081e+08    9.112970e-09    1.579171e-10    8.716180e-09    8.329670e-10   -1.540000e+00    9.816676e-01    5.044242e-01
    3.290819e+00    2.880953e+01    7.658925e+00    4.409889e+08    9.096290e-09    1.470628e-10    8.703015e-09    8.303100e-10   -1.530000e+00    9.816676e-01    4.960835e-01
    3.359383e+00    3.129719e+01    7.408455e+00    4.362458e+08    9.079795e-09    1.369729e-10    8.689280e-09    8.277310e-10   -1.520000e+00    9.816676e-01    4.877466e-01
    3.429743e+00    3.393710e+01    7.161200e+00    4.312957e+08    9.063425e-09    1.275953e-10    8.674965e-09    8.252225e-10   -1.510000e+00    9.816676e-01    4.794136e-01
    3.502052e+00    3.673136e+01    6.917265e+00    4.261536e+08    9.047135e-09    1.188806e-10    8.660060e-09    8.227770e-10   -1.500000e+00    9.816676e-01    4.710844e-01
    3.576477e+00    3.968222e+01    6.676740e+00    4.208339e+08    9.030865e-09    1.107824e-10    8.644540e-09    8.203855e-10   -1.490000e+00    9.816676e-01    4.627590e-01
    3.653190e+00    4.279232e+01    6.439710e+00    4.153497e+08    9.014565e-09    1.032572e-10    8.628390e-09    8.180410e-10   -1.480000e+00    9.816676e-01    4.544374e-01
    3.732369e+00    4.606467e+01    6.206255e+00    4.097129e+08    8.998180e-09    9.626405e-11    8.611590e-09    8.157355e-10   -1.470000e+00    9.816676e-01    4.461195e-01
    3.814202e+00    4.950291e+01    5.976450e+00    4.039343e+08    8.981655e-09    8.976475e-11    8.594105e-09    8.134615e-10   -1.460000e+00    9.816676e-01    4.378054e-01
    3.898880e+00    5.311116e+01    5.750370e+00    3.980233e+08    8.964940e-09    8.372365e-11    8.575910e-09    8.112110e-10   -1.450000e+00    9.816676e-01    4.294951e-01
    3.986615e+00    5.689433e+01    5.528075e+00    3.919887e+08    8.947975e-09    7.810750e-11    8.556970e-09    8.089765e-10   -1.440000e+00    9.816676e-01    4.211887e-01
    4.077625e+00    6.085810e+01    5.309625e+00    3.858385e+08    8.930705e-09    7.288545e-11    8.537250e-09    8.067500e-10   -1.430000e+00    9.816676e-01    4.128861e-01
    4.172139e+00    6.500891e+01    5.095080e+00    3.795791e+08    8.913075e-09    6.802860e-11    8.516710e-09    8.045235e-10   -1.420000e+00    9.816676e-01    4.045876e-01
    4.270402e+00    6.935410e+01    4.884494e+00    3.732169e+08    8.895025e-09    6.351045e-11    8.495300e-09    8.022900e-10   -1.410000e+00    9.816676e-01    3.962933e-01
    4.372674e+00    7.390196e+01    4.677921e+00    3.667572e+08    8.876495e-09    5.930610e-11    8.472975e-09    8.000410e-10   -1.400000e+00    9.816676e-01    3.880032e-01
    4.479231e+00    7.866170e+01    4.475409e+00    3.602043e+08    8.857425e-09    5.539275e-11    8.449685e-09    7.977685e-10   -1.390000e+00    9.816676e-01    3.797176e-01
    4.590371e+00    8.364363e+01    4.277008e+00    3.535628e+08    8.837745e-09    5.174910e-11    8.425365e-09    7.954645e-10   -1.380000e+00    9.816676e-01    3.714367e-01
    4.706406e+00    8.885906e+01    4.082764e+00    3.468355e+08    8.817395e-09    4.835545e-11    8.399955e-09    7.931205e-10   -1.370000e+00    9.816676e-01    3.631608e-01
    4.827678e+00    9.432051e+01    3.892721e+00    3.400254e+08    8.796305e-09    4.519368e-11    8.373395e-09    7.907280e-10   -1.360000e+00    9.816676e-01    3.548904e-01
    4.954548e+00    1.000417e+02    3.706923e+00    3.331350e+08    8.774400e-09    4.224694e-11    8.345605e-09    7.882780e-10   -1.350000e+00    9.816676e-01    3.466257e-01
    5.087404e+00    1.060374e+02    3.525412e+00    3.261655e+08    8.751615e-09    3.949969e-11    8.316515e-09    7.857610e-10   -1.340000e+00    9.816676e-01    3.383673e-01
    5.226664e+00    1.123240e+02    3.348233e+00    3.191189e+08    8.727860e-09    3.693753e-11    8.286040e-09    7.831680e-10   -1.330000e+00    9.816676e-01    3.301159e-01
    5.372771e+00    1.189189e+02    3.175425e+00    3.119953e+08    8.703065e-09    3.454719e-11    8.254095e-09    7.804890e-10   -1.320000e+00    9.816676e-01    3.218721e-01
    5.526206e+00    1.258412e+02    3.007030e+00    3.047951e+08    8.677145e-09    3.231637e-11    8.220590e-09    7.777140e-10   -1.310000e+00    9.816676e-01    3.136368e-01
    5.687479e+00    1.331111e+02    2.843089e+00    2.975185e+08    8.650005e-09    3.023373e-11    8.185420e-09    7.748320e-10   -1.300000e+00    9.816676e-01    3.054110e-01
    5.857133e+00    1.407503e+02    2.683643e+00    2.901642e+08    8.621565e-09    2.828875e-11    8.148485e-09    7.718320e-10   -1.290000e+00    9.816676e-01    2.971960e-01
    6.035751e+00    1.487823e+02    2.528733e+00    2.827316e+08    8.591720e-09    2.647174e-11    8.109675e-09    7.687025e-10   -1.280000e+00    9.816676e-01    2.889930e-01
    6.223954e+00    1.572315e+02    2.378401e+00    2.752190e+08    8.560380e-09    2.477373e-11    8.068875e-09    7.654320e-10   -1.270000e+00    9.816676e-01    2.808037e-01
    6.422390e+00    1.661238e+02    2.232686e+00    2.676246e+08    8.527435e-09    2.318643e-11    8.025970e-09    7.620070e-10   -1.260000e+00    9.816676e-01    2.726301e-01
    6.631750e+00    1.754862e+02    2.091631e+00    2.599458e+08    8.492790e-09    2.170214e-11    7.980825e-09    7.584155e-10   -1.250000e+00    9.816676e-01    2.644743e-01
    6.852747e+00    1.853468e+02    1.955277e+00    2.521804e+08    8.456325e-09    2.031378e-11    7.933310e-09    7.546435e-10   -1.240000e+00    9.816676e-01    2.563390e-01
    7.086138e+00    1.957342e+02    1.823664e+00    2.443258e+08    8.417930e-09    1.901476e-11    7.883290e-09    7.506770e-10   -1.230000e+00    9.816676e-01    2.482272e-01
    7.332679e+00    2.066772e+02    1.696836e+00    2.363789e+08    8.377490e-09    1.779903e-11    7.830625e-09    7.465015e-10   -1.220000e+00    9.816676e-01    2.401423e-01
    7.593154e+00    2.182040e+02    1.574831e+00    2.283371e+08    8.334885e-09    1.666092e-11    7.775165e-09    7.421025e-10   -1.210000e+00    9.816676e-01    2.320885e-01
    7.868329e+00    2.303422e+02    1.457690e+00    2.201981e+08    8.289995e-09    1.559523e-11    7.716760e-09    7.374635e-10   -1.200000e+00    9.816676e-01    2.240703e-01
    8.158964e+00    2.431166e+02    1.345452e+00    2.119600e+08    8.242695e-09    1.459712e-11    7.655255e-09    7.325690e-10   -1.190000e+00    9.816676e-01    2.160932e-01
    8.465754e+00    2.565484e+02    1.238152e+00    2.036216e+08    8.192865e-09    1.366210e-11    7.590505e-09    7.274035e-10   -1.180000e+00    9.816676e-01    2.081633e-01
    8.789337e+00    2.706542e+02    1.135824e+00    1.951833e+08    8.140380e-09    1.278602e-11    7.522340e-09    7.219500e-10   -1.170000e+00    9.816676e-01    2.002878e-01
    9.130215e+00    2.854429e+02    1.038498e+00    1.866468e+08    8.085115e-09    1.196502e-11    7.450610e-09    7.161915e-10   -1.160000e+00    9.816676e-01    1.924745e-01
    9.488753e+00    3.009145e+02    9.461970e-01    1.780166e+08    8.026945e-09    1.119552e-11    7.375165e-09    7.101120e-10   -1.150000e+00    9.816676e-01    1.847327e-01
    9.865077e+00    3.170559e+02    8.589375e-01    1.692992e+08    7.965760e-09    1.047418e-11    7.295845e-09    7.036945e-10   -1.140000e+00    9.816676e-01    1.770727e-01
    1.025903e+01    3.338392e+02    7.767280e-01    1.605051e+08    7.901445e-09    9.797915e-12    7.212510e-09    6.969225e-10   -1.130000e+00    9.816676e-01    1.695058e-01
    1.067010e+01    3.512172e+02    6.995650e-01    1.516488e+08    7.833895e-09    9.163845e-12    7.125015e-09    6.897800e-10   -1.120000e+00    9.816676e-01    1.620449e-01
    1.109733e+01    3.691198e+02    6.274315e-01    1.427497e+08    7.763005e-09    8.569305e-12    7.033235e-09    6.822515e-10   -1.110000e+00    9.816676e-01    1.547041e-01
    1.153925e+01    3.874515e+02    5.602945e-01    1.338324e+08    7.688700e-09    8.011800e-12    6.937050e-09    6.743225e-10   -1.100000e+00    9.816676e-01    1.474988e-01
    1.199373e+01    4.060858e+02    4.981033e-01    1.249276e+08    7.610890e-09    7.489015e-12    6.836360e-09    6.659790e-10   -1.090000e+00    9.816676e-01    1.404455e-01
    1.245800e+01    4.248662e+02    4.407843e-01    1.160718e+08    7.529530e-09    6.998785e-12    6.731080e-09    6.572095e-10   -1.080000e+00    9.816676e-01    1.335619e-01
    1.292850e+01    4.436017e+02    3.882411e-01    1.073076e+08    7.444565e-09    6.539100e-12    6.621140e-09    6.480025e-10   -1.070000e+00    9.816676e-01    1.268667e-01
    1.340094e+01    4.620703e+02    3.403516e-01    9.868295e+07    7.355985e-09    6.108080e-12    6.506505e-09    6.383495e-10   -1.060000e+00    9.816676e-01    1.203788e-01
    1.387024e+01    4.800219e+02    2.969662e-01    9.025030e+07    7.263775e-09    5.703970e-12    6.387160e-09    6.282440e-10   -1.050000e+00    9.816676e-01    1.141178e-01
    1.433069e+01    4.971852e+02    2.579082e-01    8.206473e+07    7.167965e-09    5.325130e-12    6.263120e-09    6.176815e-10   -1.040000e+00    9.816676e-01    1.081025e-01
    1.477607e+01    5.132785e+02    2.229739e-01    7.418210e+07    7.068610e-09    4.970030e-12    6.134435e-09    6.066615e-10   -1.030000e+00    9.816676e-01    1.023511e-01
    1.519988e+01    5.280229e+02    1.919345e-01    6.665668e+07    6.965780e-09    4.637233e-12    6.001185e-09    5.951850e-10   -1.020000e+00    9.816676e-01    9.688024e-02
    1.559565e+01    5.411584e+02    1.645395e-01    5.953820e+07    6.859590e-09    4.325398e-12    5.863500e-09    5.832575e-10   -1.010000e+00    9.816676e-01    9.170462e-02
    1.595731e+01    5.524621e+02    1.405207e-01    5.286946e+07    6.750180e-09    4.033265e-12    5.721530e-09    5.708875e-10   -1.000000e+00    9.816676e-01    8.683613e-02
    1.627956e+01    5.617647e+02    1.195979e-01    4.668392e+07    6.637725e-09    3.759656e-12    5.575490e-09    5.580875e-10   -9.900000e-01    9.816676e-01    8.228349e-02
    1.655823e+01    5.689641e+02    1.014848e-01    4.100397e+07    6.522425e-09    3.503462e-12    5.425615e-09    5.448740e-10   -9.800000e-01    9.816676e-01    7.805185e-02
    1.679063e+01    5.740362e+02    8.589500e-02    3.583999e+07    6.404530e-09    3.263644e-12    5.272190e-09    5.312680e-10   -9.700000e-01    9.816676e-01    7.414248e-02
    1.697575e+01    5.770365e+02    7.254845e-02    3.119032e+07    6.284305e-09    3.039223e-12    5.115555e-09    5.172940e-10   -9.600000e-01    9.816676e-01    7.055276e-02
    1.711430e+01    5.780969e+02    6.117670e-02    2.704204e+07    6.162060e-09    2.829281e-12    4.956061e-09    5.029800e-10   -9.500000e-01    9.816676e-01    6.727629e-02
    1.720874e+01    5.774167e+02    5.152750e-02    2.337258e+07    6.038120e-09    2.632952e-12    4.794121e-09    4.883586e-10   -9.400000e-01    9.816676e-01    6.430316e-02
    1.726299e+01    5.752451e+02    4.336816e-02    2.015163e+07    5.912850e-09    2.449421e-12    4.630167e-09    4.734665e-10   -9.300000e-01    9.816676e-01    6.162046e-02
    1.728217e+01    5.718653e+02    3.648761e-02    1.734355e+07    5.786630e-09    2.277919e-12    4.464669e-09    4.583426e-10   -9.200000e-01    9.816676e-01    5.921277e-02
    1.727222e+01    5.675735e+02    3.069744e-02    1.490957e+07    5.659855e-09    2.117721e-12    4.298113e-09    4.430295e-10   -9.100000e-01    9.816676e-01    5.706280e-02
    1.723952e+01    5.626625e+02    2.583175e-02    1.280983e+07    5.532935e-09    1.968145e-12    4.131009e-09    4.275721e-10   -9.000000e-01    9.816676e-01    5.515200e-02
    1.719048e+01    5.574075e+02    2.174629e-02    1.100509e+07    5.406295e-09    1.828543e-12    3.963877e-09    4.120171e-10   -8.900000e-01    9.816676e-01    5.346116e-02
    1.713129e+01    5.520549e+02    1.831697e-02    9.458036e+06    5.280355e-09    1.698308e-12    3.797242e-09    3.964128e-10   -8.800000e-01    9.816676e-01    5.197092e-02
    1.706765e+01    5.468191e+02    1.543800e-02    8.134125e+06    5.155540e-09    1.576863e-12    3.631629e-09    3.808082e-10   -8.700000e-01    9.816676e-01    5.066226e-02
    1.700464e+01    5.418768e+02    1.301983e-02    7.002124e+06    5.032260e-09    1.463665e-12    3.467551e-09    3.652522e-10   -8.600000e-01    9.816676e-01    4.951682e-02
    1.694670e+01    5.373715e+02    1.098711e-02    6.034293e+06    4.910913e-09    1.358200e-12    3.305509e-09    3.497934e-10   -8.500000e-01    9.816676e-01    4.851721e-02
    1.689758e+01    5.334151e+02    9.276735e-03    5.206357e+06    4.791880e-09    1.259984e-12    3.145981e-09    3.344792e-10   -8.400000e-01    9.816676e-01    4.764715e-02
    1.686046e+01    5.300939e+02    7.836015e-03    4.497334e+06    4.675518e-09    1.168557e-12    2.989416e-09    3.193551e-10   -8.300000e-01    9.816676e-01    4.689164e-02
    1.683803e+01    5.274738e+02    6.621030e-03    3.889257e+06    4.562157e-09    1.083488e-12    2.836234e-09    3.044646e-10   -8.200000e-01    9.816676e-01    4.623698e-02
    1.683255e+01    5.256053e+02    5.595225e-03    3.366842e+06    4.452099e-09    1.004367e-12    2.686814e-09    2.898480e-10   -8.100000e-01    9.816676e-01    4.567075e-02
    1.684608e+01    5.245296e+02    4.728164e-03    2.917163e+06    4.345609e-09    9.308105e-13    2.541495e-09    2.755427e-10   -8.000000e-01    9.816676e-01    4.518184e-02
    1.688044e+01    5.242825e+02    3.994516e-03    2.529319e+06    4.242918e-09    8.624535e-13    2.400576e-09    2.615824e-10   -7.900000e-01    9.816676e-01    4.476032e-02
    1.693743e+01    5.248972e+02    3.373169e-03    2.194131e+06    4.144223e-09    7.989545e-13    2.264307e-09    2.479972e-10   -7.800000e-01    9.816676e-01    4.439739e-02
    1.701880e+01    5.264092e+02    2.846507e-03    1.903882e+06    4.049684e-09    7.399905e-13    2.132897e-09    2.348130e-10   -7.700000e-01    9.816676e-01    4.408531e-02
    1.712637e+01    5.288561e+02    2.399810e-03    1.652077e+06    3.959424e-09    6.852575e-13    2.006508e-09    2.220518e-10   -7.600000e-01    9.816676e-01    4.381727e-02
    1.726201e+01    5.322785e+02    2.020756e-03    1.433238e+06    3.873533e-09    6.344695e-13    1.885259e-09    2.097317e-10   -7.500000e-01    9.816676e-01    4.358734e-02
    1.742765e+01    5.367221e+02    1.699016e-03    1.242741e+06    3.792066e-09    5.873590e-13    1.769226e-09    1.978664e-10   -7.400000e-01    9.816676e-01    4.339032e-02
    1.762524e+01    5.422333e+02    1.425913e-03    1.076674e+06    3.715047e-09    5.436735e-13    1.658447e-09    1.864662e-10   -7.300000e-01    9.816676e-01    4.322172e-02
    1.785670e+01    5.488601e+02    1.194146e-03    9.317141e+05    3.642472e-09    5.031760e-13    1.552921e-09    1.755376e-10   -7.200000e-01    9.816676e-01    4.307762e-02
